134365,000000	10735,908151	6232,541800	-4263,214767	-6245,116889	-3105,197847	-2189,205587	-5929,049850	-8619,113266	0,000000	0,000000	1735503357,133413	0,000000
134366,000000	10565,744340	6251,505017	-4074,972868	-6253,883243	-3116,449714	-2215,379477	-5937,387049	-8631,451428	0,000000	0,000000	1735503357,135413	0,000000
134367,000000	10388,624668	6231,173873	-3916,583955	-6195,607781	-3124,116361	-2231,374383	-5947,481096	-8607,731760	0,000000	0,000000	1735503357,137413	0,000000
134368,000000	10285,422206	6207,498908	-3839,448094	-6183,797121	-3094,826639	-2252,085507	-5963,225663	-8604,732156	0,000000	0,000000	1735503357,139413	0,000000
134369,000000	10215,617716	6172,701716	-3804,056346	-6153,711677	-3115,381300	-2265,366912	-5943,430960	-8603,538573	0,000000	0,000000	1735503357,142413	0,000000
134370,000000	10207,611322	6133,635342	-3835,782409	-6144,364178	-3083,279729	-2274,410427	-5967,052281	-8616,609871	0,000000	0,000000	1735503357,143413	0,000000
134371,000000	10301,582515	6101,287901	-3960,916400	-6119,383872	-3121,711314	-2279,171348	-6000,562012	-8616,945148	0,000000	0,000000	1735503357,145413	0,000000
134372,000000	10471,688211	6101,922691	-4128,277302	-6207,999587	-3104,549646	-2252,335846	-6003,530324	-8621,393144	0,000000	0,000000	1735503357,147413	0,000000
134373,000000	10630,287230	6131,377816	-4255,074263	-6164,950132	-3104,831278	-2247,637510	-6012,529135	-8606,475592	0,000000	0,000000	1735503357,149413	0,000000
134374,000000	10748,259723	6185,938418	-4323,399067	-6166,429818	-3088,031709	-2200,993896	-5953,297019	-8605,465293	0,000000	0,000000	1735503357,151413	0,000000
134375,000000	10719,408095	6234,392524	-4245,015979	-6133,349240	-3116,002679	-2202,893794	-5959,251523	-8579,510450	0,000000	0,000000	1735503357,153413	0,000000
134376,000000	10555,784404	6259,810925	-4056,210816	-6153,868139	-3137,733042	-2187,712491	-5988,411605	-8572,353423	0,000000	0,000000	1735503357,155413	0,000000
134377,000000	10392,411053	6247,048080	-3905,421495	-6174,007058	-3148,560226	-2224,937081	-5967,298150	-8606,971800	0,000000	0,000000	1735503357,157413	0,000000
134378,000000	10279,127955	6213,279068	-3826,417029	-6194,785237	-3145,238757	-2250,927687	-5940,945446	-8594,503999	0,000000	0,000000	1735503357,159413	0,000000
134379,000000	10208,331048	6168,057024	-3801,892698	-6166,206300	-3110,687435	-2241,124213	-6003,172696	-8577,163517	0,000000	0,000000	1735503357,162413	0,000000
134380,000000	10203,458369	6121,779978	-3840,945661	-6182,943285	-3128,962219	-2250,699699	-6014,437973	-8620,516956	0,000000	0,000000	1735503357,163413	0,000000
134381,000000	10296,674073	6093,169749	-3963,929415	-6161,163747	-3130,102158	-2275,867760	-6000,682712	-8594,624698	0,000000	0,000000	1735503357,165413	0,000000
134382,000000	10472,425818	6104,323268	-4128,241539	-6160,596013	-3102,193773	-2238,258719	-5969,922245	-8599,644899	0,000000	0,000000	1735503357,167413	0,000000
134383,000000	10632,804036	6139,549613	-4251,028597	-6184,673309	-3127,688169	-2254,128456	-5990,628898	-8594,758809	0,000000	0,000000	1735503357,169413	0,000000
134384,000000	10754,764080	6190,431118	-4324,288666	-6220,132113	-3166,213632	-2222,929895	-5965,916812	-8588,741720	0,000000	0,000000	1735503357,171413	0,000000
134385,000000	10728,076100	6238,040328	-4249,133170	-6188,423932	-3147,567809	-2216,058969	-5981,330574	-8577,977121	0,000000	0,000000	1735503357,173413	0,000000
134386,000000	10548,953712	6253,686547	-4057,145119	-6228,326261	-3144,367039	-2253,681421	-6005,278230	-8613,185585	0,000000	0,000000	1735503357,175413	0,000000
134387,000000	10379,026830	6227,655709	-3909,337521	-6178,124249	-3120,866418	-2219,505608	-5983,985960	-8605,751395	0,000000	0,000000	1735503357,177413	0,000000
134388,000000	10272,265971	6201,030314	-3831,553459	-6199,161708	-3124,286234	-2226,939797	-5935,187638	-8614,982665	0,000000	0,000000	1735503357,179413	0,000000
134389,000000	10206,538439	6168,995798	-3799,733520	-6141,158938	-3152,051568	-2213,618159	-5941,584706	-8605,751395	0,000000	0,000000	1735503357,182413	0,000000
134390,000000	10200,195014	6124,918163	-3835,965693	-6173,475087	-3108,201921	-2191,127837	-5968,831480	-8634,392917	0,000000	0,000000	1735503357,183413	0,000000
134391,000000	10301,260650	6100,603938	-3960,214555	-6170,247495	-3122,006357	-2258,616686	-5940,820277	-8623,369038	0,000000	0,000000	1735503357,185413	0,000000
134392,000000	10492,381454	6113,541126	-4139,524698	-6164,762378	-3157,018125	-2233,453095	-5968,232453	-8601,450920	0,000000	0,000000	1735503357,187413	0,000000
134393,000000	10644,784570	6144,113839	-4260,277748	-6185,147166	-3113,472462	-2194,717526	-5959,081650	-8596,931398	0,000000	0,000000	1735503357,189413	0,000000
134394,000000	10761,514306	6192,362309	-4329,000413	-6138,785183	-3117,907047	-2206,000686	-5936,054885	-8581,884205	0,000000	0,000000	1735503357,191413	0,000000
134395,000000	10731,182992	6236,216426	-4254,443944	-6168,754399	-3140,991926	-2224,892378	-5970,785022	-8566,059172	0,000000	0,000000	1735503357,193413	0,000000
134396,000000	10568,453372	6262,175739	-4066,680372	-6215,594709	-3155,913949	-2221,208811	-5950,744450	-8618,290722	0,000000	0,000000	1735503357,195413	0,000000
134397,000000	10398,258269	6243,807077	-3914,822638	-6162,236631	-3115,430474	-2193,197608	-5984,191597	-8602,179587	0,000000	0,000000	1735503357,197413	0,000000
134398,000000	10302,481055	6217,467785	-3845,760226	-6189,903617	-3095,546365	-2193,090320	-5961,732566	-8595,053852	0,000000	0,000000	1735503357,199413	0,000000
134399,000000	10236,606002	6182,724237	-3811,606765	-6165,897846	-3100,003302	-2188,369632	-5980,356038	-8575,983346	0,000000	0,000000	1735503357,202413	0,000000
134400,000000	10223,002732	6140,474975	-3843,927383	-6184,601784	-3073,243797	-2196,045220	-5984,571576	-8588,469028	0,000000	0,000000	1735503357,203413	0,000000
134401,000000	10317,331553	6112,982333	-3963,696957	-6151,981652	-3082,917631	-2187,730372	-5976,176262	-8604,271710	0,000000	0,000000	1735503357,205413	0,000000
134402,000000	10499,078035	6117,403507	-4141,178727	-6128,185987	-3086,256981	-2209,442854	-5994,451046	-8606,900275	0,000000	0,000000	1735503357,207413	0,000000
134403,000000	10656,572878	6145,338714	-4270,952940	-6169,952452	-3086,431324	-2182,871103	-5974,195898	-8587,507904	0,000000	0,000000	1735503357,209413	0,000000
134404,000000	10769,748688	6199,380755	-4330,234230	-6131,511927	-3087,741137	-2191,731334	-5964,508653	-8578,151464	0,000000	0,000000	1735503357,211413	0,000000
134405,000000	10740,181804	6252,054870	-4247,273505	-6185,406446	-3109,748662	-2254,311740	-5949,050188	-8610,977232	0,000000	0,000000	1735503357,213413	0,000000
134406,000000	10574,863851	6268,657744	-4064,708948	-6201,642752	-3071,057796	-2262,791991	-5979,895592	-8596,077561	0,000000	0,000000	1735503357,215413	0,000000
134407,000000	10411,325097	6246,381998	-3924,849629	-6202,729046	-3107,003868	-2240,717411	-5992,841721	-8631,196618	0,000000	0,000000	1735503357,217413	0,000000
134408,000000	10302,691162	6223,703921	-3838,375211	-6208,871305	-3101,827204	-2241,879702	-5946,542323	-8603,815734	0,000000	0,000000	1735503357,219413	0,000000
134409,000000	10231,509805	6180,140376	-3810,958564	-6184,235215	-3107,102215	-2239,979804	-5915,987492	-8609,528840	0,000000	0,000000	1735503357,222413	0,000000
134410,000000	10220,387578	6130,461395	-3850,449622	-6153,152883	-3092,081845	-2213,090658	-5906,961858	-8595,938981	0,000000	0,000000	1735503357,223413	0,000000
134411,000000	10321,404040	6109,844148	-3971,296549	-6188,464165	-3099,024296	-2161,230147	-5931,039155	-8618,268371	0,000000	0,000000	1735503357,225413	0,000000
134412,000000	10501,264036	6114,690006	-4144,942760	-6154,319644	-3095,139563	-2104,899287	-5925,223231	-8612,667024	0,000000	0,000000	1735503357,227413	0,000000
134413,000000	10652,428865	6141,588092	-4269,817472	-6144,104898	-3116,557002	-2090,030909	-5969,654024	-8588,330448	0,000000	0,000000	1735503357,229413	0,000000
134414,000000	10771,009326	6193,462014	-4332,822561	-6168,799102	-3132,873774	-2205,459774	-5950,029194	-8570,484817	0,000000	0,000000	1735503357,231413	0,000000
134415,000000	10742,671788	6240,244210	-4260,054231	-6271,634996	-3116,802871	-2256,967127	-5960,132182	-8537,234366	0,000000	0,000000	1735503357,233413	0,000000
134416,000000	10573,133826	6260,687113	-4073,618352	-6166,693568	-3131,921589	-2206,657827	-5946,287513	-8587,731421	0,000000	0,000000	1735503357,235413	0,000000
134417,000000	10391,494632	6231,898069	-3919,601440	-6192,022562	-3122,051060	-2214,650810	-5983,467400	-8557,073772	0,000000	0,000000	1735503357,237413	0,000000
134418,000000	10281,635821	6201,513112	-3840,480745	-6176,233292	-3101,205826	-2234,807611	-5953,994393	-8577,606082	0,000000	0,000000	1735503357,239413	0,000000
134419,000000	10202,872753	6164,216995	-3798,669577	-6197,494268	-3115,041554	-2245,898545	-5967,271328	-8582,876623	0,000000	0,000000	1735503357,242413	0,000000
134420,000000	10199,336708	6126,147509	-3833,904862	-6191,696227	-3107,580543	-2217,985690	-5947,373807	-8551,982045	0,000000	0,000000	1735503357,243413	0,000000
134421,000000	10294,447839	6100,594997	-3954,617679	-6159,889698	-3105,568886	-2214,413881	-5985,188484	-8558,946848	0,000000	0,000000	1735503357,245413	0,000000
134422,000000	10474,853218	6104,175746	-4129,949212	-6143,756211	-3085,729480	-2218,656242	-5973,051488	-8599,041402	0,000000	0,000000	1735503357,247413	0,000000
134423,000000	10626,326501	6133,885682	-4252,436757	-6177,230179	-3067,325056	-2267,758548	-5920,198560	-8625,407517	0,000000	0,000000	1735503357,249413	0,000000
134424,000000	10740,441084	6178,995967	-4323,363304	-6155,043840	-3075,170517	-2235,871553	-5908,687413	-8605,943620	0,000000	0,000000	1735503357,251413	0,000000
134425,000000	10725,899041	6228,049099	-4259,195924	-6189,653277	-3077,915311	-2209,049463	-5957,579613	-8629,095554	0,000000	0,000000	1735503357,253413	0,000000
134426,000000	10563,281178	6250,199676	-4073,166847	-6170,211732	-3075,823188	-2209,080756	-5931,124091	-8626,256883	0,000000	0,000000	1735503357,255413	0,000000
134427,000000	10383,117199	6235,273182	-3908,859193	-6164,771318	-3076,247871	-2249,152958	-5984,406173	-8609,130979	0,000000	0,000000	1735503357,257413	0,000000
134428,000000	10276,499391	6206,421554	-3828,768432	-6137,220562	-3078,916669	-2255,947888	-5998,492241	-8590,082824	0,000000	0,000000	1735503357,259413	0,000000
134429,000000	10210,597515	6169,183552	-3800,515831	-6128,543615	-3075,322509	-2247,588336	-5991,907418	-8602,528274	0,000000	0,000000	1735503357,262413	0,000000
134430,000000	10191,580653	6121,842563	-3829,760849	-6144,426763	-3047,910333	-2259,631455	-5947,650969	-8601,213992	0,000000	0,000000	1735503357,263413	0,000000
134431,000000	10286,396742	6096,088886	-3952,082992	-6131,131947	-3067,155182	-2264,378965	-5997,312069	-8592,027426	0,000000	0,000000	1735503357,265413	0,000000
134432,000000	10470,052063	6103,639305	-4126,448929	-6184,181571	-3057,847917	-2242,773771	-5956,734717	-8596,466482	0,000000	0,000000	1735503357,267413	0,000000
134433,000000	10634,543002	6142,593920	-4254,001379	-6174,351275	-3090,825677	-2225,187421	-5970,762670	-8584,932983	0,000000	0,000000	1735503357,269413	0,000000
134434,000000	10759,310424	6191,848218	-4327,319562	-6183,063984	-3100,740910	-2230,963111	-5958,554149	-8581,835032	0,000000	0,000000	1735503357,271413	0,000000
134435,000000	10730,409622	6240,731478	-4249,987006	-6193,873286	-3098,733723	-2214,266360	-5952,192843	-8577,176929	0,000000	0,000000	1735503357,273413	0,000000
134436,000000	10568,663478	6264,625490	-4063,470662	-6213,520467	-3117,969632	-2244,329453	-5947,977304	-8578,535914	0,000000	0,000000	1735503357,275413	0,000000
134437,000000	10393,188894	6236,650050	-3915,926814	-6181,003153	-3127,768636	-2259,720862	-5940,945446	-8566,041291	0,000000	0,000000	1735503357,277413	0,000000
134438,000000	10279,498994	6211,598217	-3828,004003	-6185,410917	-3080,718219	-2250,261605	-5962,425470	-8598,232269	0,000000	0,000000	1735503357,279413	0,000000
134439,000000	10222,135484	6178,955734	-3804,154694	-6190,448999	-3071,849048	-2237,454057	-5961,053073	-8598,889410	0,000000	0,000000	1735503357,282413	0,000000
134440,000000	10218,863189	6135,785580	-3842,970729	-6156,215072	-3078,532219	-2229,022980	-5951,258540	-8623,069525	0,000000	0,000000	1735503357,283413	0,000000
134441,000000	10312,065482	6113,487482	-3957,898915	-6147,980690	-3089,211881	-2207,475901	-6000,383198	-8604,758978	0,000000	0,000000	1735503357,285413	0,000000
134442,000000	10489,292443	6117,846072	-4130,740464	-6176,273525	-3075,581789	-2238,620818	-5984,871089	-8648,930490	0,000000	0,000000	1735503357,287413	0,000000
134443,000000	10641,065240	6148,776412	-4252,195358	-6175,813079	-3075,443208	-2250,315249	-5942,112207	-8628,129959	0,000000	0,000000	1735503357,289413	0,000000
134444,000000	10758,246481	6200,091541	-4318,718612	-6172,759831	-3112,113476	-2296,721935	-5946,743488	-8589,439094	0,000000	0,000000	1735503357,291413	0,000000
134445,000000	10743,686557	6243,936718	-4259,625077	-6249,882281	-3115,975857	-2240,198851	-5978,845060	-8619,636297	0,000000	0,000000	1735503357,293413	0,000000
134446,000000	10580,702126	6267,361343	-4073,622823	-6152,276695	-3107,053041	-2247,065306	-6002,770364	-8626,940846	0,000000	0,000000	1735503357,295413	0,000000
134447,000000	10400,180519	6242,519617	-3918,094933	-6204,369664	-3095,725179	-2223,148942	-5975,036323	-8618,648350	0,000000	0,000000	1735503357,297413	0,000000
134448,000000	10294,041038	6218,813360	-3834,441304	-6146,630645	-3058,598936	-2238,214016	-5908,915401	-8582,572639	0,000000	0,000000	1735503357,299413	0,000000
134449,000000	10224,500299	6181,280315	-3804,221749	-6153,854728	-3086,435795	-2235,782146	-5943,869054	-8604,378998	0,000000	0,000000	1735503357,302413	0,000000
134450,000000	10209,046304	6127,443910	-3841,280937	-6197,565794	-3070,811927	-2229,760587	-5888,946354	-8627,687395	0,000000	0,000000	1735503357,303413	0,000000
134451,000000	10306,839645	6105,382740	-3961,448371	-6167,927384	-3110,012412	-2269,846201	-5891,588330	-8617,906272	0,000000	0,000000	1735503357,305413	0,000000
134452,000000	10492,551327	6118,100882	-4134,017229	-6195,384264	-3093,338013	-2264,459431	-5899,858475	-8601,482213	0,000000	0,000000	1735503357,307413	0,000000
134453,000000	10647,068918	6148,664653	-4258,359969	-6172,111630	-3092,654049	-2235,572040	-5918,785930	-8597,324789	0,000000	0,000000	1735503357,309413	0,000000
134454,000000	10760,101676	6197,355688	-4322,925210	-6182,201207	-3096,292913	-2249,354124	-5958,755314	-8587,194979	0,000000	0,000000	1735503357,311413	0,000000
134455,000000	10737,271607	6248,474121	-4248,547554	-6175,652146	-3119,328618	-2279,806137	-5929,340422	-8591,924608	0,000000	0,000000	1735503357,313413	0,000000
134456,000000	10577,327013	6265,121698	-4074,409604	-6176,944077	-3112,310171	-2224,856615	-6026,624143	-8606,220782	0,000000	0,000000	1735503357,315413	0,000000
134457,000000	10400,328040	6242,939830	-3916,347027	-6179,974973	-3118,202090	-2264,146507	-5975,961685	-8598,692715	0,000000	0,000000	1735503357,317413	0,000000
134458,000000	10290,093720	6215,746701	-3832,755983	-6222,818792	-3121,675551	-2261,044085	-6002,940238	-8597,709239	0,000000	0,000000	1735503357,319413	0,000000
134459,000000	10232,278705	6185,880303	-3807,601333	-6200,824678	-3126,981854	-2235,952020	-5983,409286	-8618,710935	0,000000	0,000000	1735503357,322413	0,000000
134460,000000	10224,379599	6148,414314	-3835,634887	-6165,343523	-3129,918873	-2225,089073	-5957,655609	-8568,781614	0,000000	0,000000	1735503357,323413	0,000000
134461,000000	10309,839249	6112,132967	-3953,848779	-6234,571338	-3124,004602	-2189,773321	-5976,569653	-8589,926362	0,000000	0,000000	1735503357,325413	0,000000
134462,000000	10492,345691	6123,022735	-4128,679633	-6163,188815	-3107,553720	-2202,822268	-5960,074067	-8605,340123	0,000000	0,000000	1735503357,327413	0,000000
134463,000000	10637,524724	6148,204207	-4249,973595	-6190,077960	-3125,797212	-2225,196362	-5973,051488	-8610,977232	0,000000	0,000000	1735503357,329413	0,000000
134464,000000	10758,715868	6203,752756	-4316,098988	-6180,681288	-3117,562830	-2223,233879	-6000,682712	-8595,702052	0,000000	0,000000	1735503357,331413	0,000000
134465,000000	10740,619898	6255,921721	-4245,056212	-6199,859083	-3134,344518	-2241,450548	-5946,528912	-8591,061831	0,000000	0,000000	1735503357,333413	0,000000
134466,000000	10569,745302	6269,440055	-4060,980678	-6192,331016	-3173,728287	-2241,428196	-5959,202349	-8578,969538	0,000000	0,000000	1735503357,335413	0,000000
134467,000000	10389,223695	6245,215237	-3904,402256	-6186,845899	-3125,850856	-2218,656242	-6006,556749	-8579,228818	0,000000	0,000000	1735503357,337413	0,000000
134468,000000	10291,595757	6220,646203	-3830,569983	-6202,679873	-3154,899180	-2222,460508	-6007,808447	-8614,258468	0,000000	0,000000	1735503357,339413	0,000000
134469,000000	10214,513540	6184,534729	-3789,988160	-6165,616214	-3148,104250	-2227,909863	-6040,947139	-8603,239059	0,000000	0,000000	1735503357,342413	0,000000
134470,000000	10210,239887	6142,187119	-3827,114403	-6158,544123	-3120,464087	-2214,418352	-5975,434184	-8602,523804	0,000000	0,000000	1735503357,343413	0,000000
134471,000000	10303,406417	6113,590300	-3948,859870	-6127,403677	-3068,773448	-2220,162749	-5938,173831	-8617,942035	0,000000	0,000000	1735503357,345413	0,000000
134472,000000	10471,978784	6114,591658	-4117,839038	-6173,747778	-3073,771298	-2190,510929	-5988,036096	-8600,932360	0,000000	0,000000	1735503357,347413	0,000000
134473,000000	10619,442165	6147,108972	-4232,583940	-6174,628437	-3092,980385	-2144,797146	-5977,495015	-8603,471518	0,000000	0,000000	1735503357,349413	0,000000
134474,000000	10729,555786	6188,191473	-4299,657047	-6191,723049	-3132,458031	-2139,589190	-6010,490656	-8602,474630	0,000000	0,000000	1735503357,351413	0,000000
134475,000000	10718,643665	6239,622831	-4239,316285	-6217,829883	-3161,881864	-2193,801105	-6009,766459	-8619,484305	0,000000	0,000000	1735503357,353413	0,000000
134476,000000	10560,362041	6253,968179	-4067,020118	-6199,577451	-3179,812431	-2166,111767	-6007,365882	-8613,198996	0,000000	0,000000	1735503357,355413	0,000000
134477,000000	10381,405056	6235,666573	-3906,735778	-6167,525053	-3137,062490	-2134,551108	-6004,124880	-8605,974913	0,000000	0,000000	1735503357,357413	0,000000
134478,000000	10274,751484	6211,365759	-3824,052215	-6162,343919	-3125,832975	-2157,139778	-5972,296000	-8604,048193	0,000000	0,000000	1735503357,359413	0,000000
134479,000000	10216,024518	6183,716655	-3790,850937	-6165,468693	-3111,080825	-2228,271961	-5941,776931	-8610,329032	0,000000	0,000000	1735503357,362413	0,000000
134480,000000	10204,960406	6137,689948	-3825,710714	-6204,570830	-3115,734458	-2206,268907	-5949,153006	-8609,823883	0,000000	0,000000	1735503357,363413	0,000000
134481,000000	10292,042792	6112,132967	-3938,890994	-6188,620627	-3103,709221	-2197,922766	-5993,458629	-8607,056737	0,000000	0,000000	1735503357,365413	0,000000
134482,000000	10476,753116	6118,489802	-4118,219018	-6144,708395	-3082,403541	-2201,811969	-5961,111188	-8605,760336	0,000000	0,000000	1735503357,367413	0,000000
134483,000000	10629,589856	6148,011982	-4240,952432	-6178,660691	-3082,720935	-2205,164731	-5953,828990	-8628,156781	0,000000	0,000000	1735503357,369413	0,000000
134484,000000	10739,529133	6197,722256	-4300,591350	-6206,023693	-3104,165196	-2205,768228	-5934,816599	-8609,381318	0,000000	0,000000	1735503357,371413	0,000000
134485,000000	10722,604394	6248,536706	-4234,099388	-6190,158427	-3092,171252	-2188,955247	-5953,225493	-8594,048023	0,000000	0,000000	1735503357,373413	0,000000
134486,000000	10554,362833	6270,146370	-4045,888782	-6196,479499	-3104,777634	-2207,940817	-5996,668339	-8617,410064	0,000000	0,000000	1735503357,375413	0,000000
134487,000000	10378,718376	6247,101724	-3893,803060	-6187,444925	-3103,932738	-2225,835621	-5970,539153	-8607,436717	0,000000	0,000000	1735503357,377413	0,000000
134488,000000	10269,127786	6217,633188	-3810,547292	-6187,967956	-3084,191680	-2247,530222	-5962,483585	-8604,227006	0,000000	0,000000	1735503357,379413	0,000000
134489,000000	10204,021633	6180,185080	-3784,811497	-6235,246360	-3069,622815	-2239,121497	-5994,786322	-8627,513051	0,000000	0,000000	1735503357,382413	0,000000
134490,000000	10197,427869	6136,000156	-3821,606934	-6222,233176	-3049,139678	-2205,128968	-5937,422812	-8621,209860	0,000000	0,000000	1735503357,383413	0,000000
134491,000000	10296,535492	6116,929650	-3938,461840	-6188,848615	-3040,704131	-2163,559198	-5977,651477	-8629,444242	0,000000	0,000000	1735503357,385413	0,000000
134492,000000	10478,147864	6125,682592	-4113,176465	-6182,062626	-3064,508736	-2166,813612	-5965,867639	-8619,993925	0,000000	0,000000	1735503357,387413	0,000000
134493,000000	10627,967119	6148,159504	-4238,685966	-6175,719202	-3076,149523	-2156,849205	-5973,400176	-8622,407913	0,000000	0,000000	1735503357,389413	0,000000
134494,000000	10742,980242	6193,605065	-4310,256243	-6151,418388	-3085,371852	-2167,363465	-6012,520194	-8613,525331	0,000000	0,000000	1735503357,391413	0,000000
134495,000000	10727,669299	6248,688698	-4236,352444	-6237,477064	-3075,917065	-2182,540298	-6051,045656	-8575,938642	0,000000	0,000000	1735503357,393413	0,000000
134496,000000	10580,661893	6272,377074	-4068,213701	-6160,385907	-3085,121512	-2171,824872	-6006,172299	-8597,297966	0,000000	0,000000	1735503357,395413	0,000000
134497,000000	10419,112444	6254,039705	-3926,771879	-6174,972653	-3078,755736	-2172,964811	-6019,677222	-8617,553115	0,000000	0,000000	1735503357,397413	0,000000
134498,000000	10309,056938	6230,266392	-3840,091825	-6186,984479	-3118,161857	-2229,215205	-5971,661210	-8604,495227	0,000000	0,000000	1735503357,399413	0,000000
134499,000000	10236,668587	6196,819246	-3800,243139	-6188,714504	-3092,515469	-2235,554159	-5935,853720	-8603,838086	0,000000	0,000000	1735503357,402413	0,000000
134500,000000	10228,854418	6151,449680	-3838,661313	-6188,204885	-3073,878586	-2236,609161	-5988,796055	-8600,395918	0,000000	0,000000	1735503357,403413	0,000000
134501,000000	10318,878293	6127,940118	-3949,937224	-6161,682308	-3055,465221	-2206,970751	-5982,546508	-8601,124585	0,000000	0,000000	1735503357,405413	0,000000
134502,000000	10489,162803	6130,108237	-4117,906094	-6136,246026	-3055,903316	-2216,707170	-5977,204442	-8596,260846	0,000000	0,000000	1735503357,407413	0,000000
134503,000000	10651,682317	6169,183552	-4243,013263	-6170,059741	-3056,117892	-2210,377157	-5985,438824	-8616,600931	0,000000	0,000000	1735503357,409413	0,000000
134504,000000	10775,743425	6214,061379	-4319,849610	-6135,213375	-3067,262471	-2239,783108	-5973,829329	-8628,840744	0,000000	0,000000	1735503357,411413	0,000000
134505,000000	10759,520531	6268,242002	-4250,997305	-6186,340749	-3093,673289	-2234,552801	-5941,870809	-8602,899313	0,000000	0,000000	1735503357,413413	0,000000
134506,000000	10593,348742	6291,456521	-4060,466588	-6194,861233	-3075,970709	-2207,694948	-5962,724984	-8600,507677	0,000000	0,000000	1735503357,415413	0,000000
134507,000000	10403,694212	6264,652312	-3896,234930	-6220,319867	-3119,069338	-2228,119969	-5966,900289	-8629,962802	0,000000	0,000000	1735503357,417413	0,000000
134508,000000	10293,334723	6232,827902	-3820,355237	-6172,540784	-3095,845878	-2194,556594	-5972,264707	-8662,404120	0,000000	0,000000	1735503357,419413	0,000000
134509,000000	10221,612453	6202,961504	-3778,468072	-6187,234819	-3092,792630	-2185,419202	-5983,150005	-8666,042984	0,000000	0,000000	1735503357,422413	0,000000
134510,000000	10226,038098	6161,919236	-3824,338317	-6198,956072	-3076,699376	-2204,436064	-6018,698215	-8665,904403	0,000000	0,000000	1735503357,423413	0,000000
134511,000000	10313,303769	6138,499081	-3936,021030	-6186,188757	-3061,062098	-2210,099995	-5993,910134	-8661,125600	0,000000	0,000000	1735503357,425413	0,000000
134512,000000	10490,378737	6139,862537	-4109,559953	-6176,720560	-3080,575168	-2206,778526	-5984,120071	-8622,644842	0,000000	0,000000	1735503357,427413	0,000000
134513,000000	10638,311505	6170,301139	-4226,750135	-6174,547970	-3104,701638	-2213,148773	-5966,909230	-8607,602119	0,000000	0,000000	1735503357,429413	0,000000
134514,000000	10764,625669	6227,968633	-4298,186302	-6194,651127	-3073,869646	-2221,593261	-5968,996882	-8593,444526	0,000000	0,000000	1735503357,431413	0,000000
134515,000000	10750,083625	6278,599799	-4232,570529	-6163,237989	-3098,608553	-2209,344506	-5971,263349	-8591,262996	0,000000	0,000000	1735503357,433413	0,000000
134516,000000	10576,598346	6289,033592	-4048,061371	-6141,301990	-3107,303381	-2216,085792	-5989,578366	-8624,924719	0,000000	0,000000	1735503357,435413	0,000000
134517,000000	10391,387343	6256,225705	-3895,403445	-6154,949963	-3102,681041	-2147,009969	-5981,920660	-8611,728251	0,000000	0,000000	1735503357,437413	0,000000
134518,000000	10282,807052	6230,887771	-3814,271092	-6159,040332	-3091,335297	-2079,708874	-5996,033549	-8603,033423	0,000000	0,000000	1735503357,439413	0,000000
134519,000000	10210,870206	6196,376681	-3776,080906	-6198,540330	-3074,271977	-2102,878690	-5972,707272	-8598,482609	0,000000	0,000000	1735503357,442413	0,000000
134520,000000	10198,071599	6147,864461	-3809,984028	-6150,528789	-3098,367155	-2116,651833	-5963,484943	-8569,872379	0,000000	0,000000	1735503357,443413	0,000000
134521,000000	10297,939181	6124,153733	-3935,042024	-6188,714504	-3058,406711	-2103,625238	-5987,884104	-8553,443849	0,000000	0,000000	1735503357,445413	0,000000
134522,000000	10482,475162	6129,325926	-4113,198817	-6166,376173	-3080,038726	-2113,133669	-5994,687974	-8593,060076	0,000000	0,000000	1735503357,447413	0,000000
134523,000000	10637,131333	6159,858406	-4236,607254	-6157,627702	-3060,565889	-2139,937878	-6012,770534	-8585,576713	0,000000	0,000000	1735503357,449413	0,000000
134524,000000	10750,736296	6206,417084	-4302,656651	-6143,313646	-3070,543706	-2092,476189	-5965,206027	-8613,279462	0,000000	0,000000	1735503357,451413	0,000000
134525,000000	10737,468302	6261,889637	-4234,962165	-6155,008078	-3120,388091	-2113,276720	-5987,244844	-8603,735268	0,000000	0,000000	1735503357,453413	0,000000
134526,000000	10569,061339	6276,762486	-4052,911699	-6121,873856	-3108,246624	-2093,392611	-5964,075029	-8573,430777	0,000000	0,000000	1735503357,455413	0,000000
134527,000000	10385,423899	6251,057982	-3895,591199	-6158,964336	-3071,656823	-2067,844570	-5978,733301	-8596,752584	0,000000	0,000000	1735503357,457413	0,000000
134528,000000	10274,568200	6223,171949	-3811,468184	-6152,880192	-3105,810285	-2120,263875	-5939,523876	-8601,133525	0,000000	0,000000	1735503357,459413	0,000000
134529,000000	10190,825164	6186,179817	-3766,907752	-6145,137548	-3052,572906	-2121,864259	-5969,363451	-8600,865304	0,000000	0,000000	1735503357,462413	0,000000
134530,000000	10182,362795	6140,331924	-3803,068399	-6112,995744	-3080,382943	-2114,327252	-5979,810655	-8584,696054	0,000000	0,000000	1735503357,463413	0,000000
134531,000000	10278,855264	6114,184856	-3925,623000	-6111,314893	-3041,830659	-2120,304108	-5959,023535	-8579,921722	0,000000	0,000000	1735503357,465413	0,000000
134532,000000	10465,407372	6122,244895	-4101,589322	-6127,198040	-3062,081337	-2100,737393	-5964,477360	-8569,845557	0,000000	0,000000	1735503357,467413	0,000000
134533,000000	10621,163249	6153,935194	-4226,405919	-6150,135398	-3051,629663	-2069,073915	-5954,477191	-8590,672910	0,000000	0,000000	1735503357,469413	0,000000
134534,000000	10735,072196	6197,226048	-4297,158122	-6141,337752	-3112,028539	-2067,026496	-5965,518951	-8569,912612	0,000000	0,000000	1735503357,471413	0,000000
134535,000000	10732,336342	6256,373227	-4236,289859	-6157,332659	-3115,689754	-2049,958706	-5938,535929	-8562,858403	0,000000	0,000000	1735503357,473413	0,000000
134536,000000	10565,896332	6275,899708	-4049,353302	-6145,437062	-3155,207634	-2113,696933	-5945,178866	-8579,662442	0,000000	0,000000	1735503357,475413	0,000000
134537,000000	10402,406752	6259,359419	-3902,077675	-6164,185703	-3163,106740	-2101,935446	-6011,576951	-8582,863212	0,000000	0,000000	1735503357,477413	0,000000
134538,000000	10292,078555	6229,899824	-3823,484480	-6154,310703	-3137,858212	-2127,729356	-6018,215418	-8572,125435	0,000000	0,000000	1735503357,479413	0,000000
134539,000000	10229,511559	6204,642355	-3784,789145	-6186,600029	-3152,199090	-2140,957117	-5999,399722	-8585,286140	0,000000	0,000000	1735503357,482413	0,000000
134540,000000	10222,680867	6162,075698	-3816,872835	-6114,757061	-3131,961823	-2089,422941	-5940,753222	-8584,722877	0,000000	0,000000	1735503357,483413	0,000000
134541,000000	10311,180353	6139,920652	-3928,703070	-6151,020527	-3098,157048	-2113,035321	-6024,263799	-8576,001227	0,000000	0,000000	1735503357,485413	0,000000
134542,000000	10497,575998	6143,917143	-4112,899303	-6141,686440	-3085,979819	-2102,856338	-5975,309014	-8577,659726	0,000000	0,000000	1735503357,487413	0,000000
134543,000000	10652,554035	6183,511019	-4230,317473	-6150,873005	-3080,950677	-2110,634744	-5954,150856	-8611,710370	0,000000	0,000000	1735503357,489413	0,000000
134544,000000	10770,750046	6228,429079	-4299,733043	-6152,330339	-3113,682568	-2167,108655	-5983,150005	-8608,388901	0,000000	0,000000	1735503357,491413	0,000000
134545,000000	10759,104788	6278,336048	-4239,115119	-6153,412163	-3131,648898	-2221,655846	-5987,839401	-8586,157858	0,000000	0,000000	1735503357,493413	0,000000
134546,000000	10596,817732	6304,375827	-4052,902758	-6156,367064	-3174,573183	-2211,914957	-5993,311107	-8572,652936	0,000000	0,000000	1735503357,495413	0,000000
134547,000000	10414,235294	6279,686093	-3894,867003	-6143,648922	-3126,892447	-2231,803536	-5990,324914	-8600,248396	0,000000	0,000000	1735503357,497413	0,000000
134548,000000	10304,827988	6255,103648	-3809,313476	-6150,291860	-3130,356967	-2214,248478	-5960,105360	-8605,299890	0,000000	0,000000	1735503357,499413	0,000000
134549,000000	10234,580934	6217,105687	-3776,389360	-6118,735671	-3123,092651	-2254,351974	-5956,090987	-8597,186208	0,000000	0,000000	1735503357,502413	0,000000
134550,000000	10229,444504	6172,026694	-3810,502589	-6197,445095	-3131,219745	-2236,323059	-5975,237489	-8606,922626	0,000000	0,000000	1735503357,503413	0,000000
134551,000000	10329,638422	6140,582263	-3932,905197	-6202,782691	-3150,969744	-2247,159183	-5958,285928	-8642,247319	0,000000	0,000000	1735503357,505413	0,000000
134552,000000	10502,296686	6145,454943	-4111,956060	-6143,148243	-3062,233329	-2211,843431	-5953,726172	-8594,508469	0,000000	0,000000	1735503357,507413	0,000000
134553,000000	10650,698841	6177,556515	-4233,871400	-6153,027713	-3119,932115	-2181,597054	-5935,858190	-8597,794175	0,000000	0,000000	1735503357,509413	0,000000
134554,000000	10778,255761	6228,670478	-4309,625924	-6154,185534	-3131,362796	-2218,459547	-5931,682885	-8580,739796	0,000000	0,000000	1735503357,511413	0,000000
134555,000000	10762,131214	6278,081238	-4244,627059	-6161,972880	-3135,453165	-2161,578834	-5960,239470	-8602,277935	0,000000	0,000000	1735503357,513413	0,000000
134556,000000	10604,274273	6300,732493	-4065,464437	-6159,420311	-3131,948411	-2216,850221	-5955,053866	-8603,757620	0,000000	0,000000	1735503357,515413	0,000000
134557,000000	10426,135361	6277,401745	-3909,234703	-6174,771488	-3106,498718	-2235,706151	-5940,261483	-8613,806963	0,000000	0,000000	1735503357,517413	0,000000
134558,000000	10318,556428	6251,397729	-3826,372325	-6173,099577	-3100,477159	-2232,581377	-5956,269801	-8604,991436	0,000000	0,000000	1735503357,519413	0,000000
134559,000000	10238,304734	6221,705675	-3775,446117	-6166,948378	-3128,725290	-2251,258492	-5925,071239	-8627,982438	0,000000	0,000000	1735503357,522413	0,000000
134560,000000	10225,403309	6176,492572	-3807,462752	-6149,071455	-3100,691736	-2232,688665	-5945,858359	-8608,795702	0,000000	0,000000	1735503357,523413	0,000000
134561,000000	10324,260592	6151,767075	-3932,560980	-6114,926934	-3080,494702	-2234,669030	-5961,352587	-8615,250885	0,000000	0,000000	1735503357,525413	0,000000
134562,000000	10502,618551	6156,925857	-4106,596112	-6158,857048	-3121,058643	-2233,837545	-5980,208516	-8619,774878	0,000000	0,000000	1735503357,527413	0,000000
134563,000000	10659,715533	6184,069812	-4236,111045	-6157,529354	-3156,347573	-2219,523489	-5897,551775	-8635,005355	0,000000	0,000000	1735503357,529413	0,000000
134564,000000	10774,849355	6232,009828	-4301,771522	-6142,044067	-3164,693713	-2247,329056	-5979,439616	-8613,413572	0,000000	0,000000	1735503357,531413	0,000000
134565,000000	10760,325193	6286,762655	-4232,695699	-6139,545143	-3183,782101	-2242,483199	-5982,117355	-8623,838425	0,000000	0,000000	1735503357,533413	0,000000
134566,000000	10615,222156	6316,249073	-4058,262706	-6168,682873	-3142,440319	-2209,702134	-5988,939106	-8623,999357	0,000000	0,000000	1735503357,535413	0,000000
134567,000000	10423,399508	6289,865077	-3893,378377	-6150,148809	-3176,826239	-2222,098410	-5978,630483	-8608,098328	0,000000	0,000000	1735503357,537413	0,000000
134568,000000	10313,272476	6265,519559	-3806,760907	-6152,522564	-3159,110248	-2214,145660	-5973,592401	-8610,145748	0,000000	0,000000	1735503357,539413	0,000000
134569,000000	10239,869356	6235,943735	-3765,566647	-6161,749363	-3119,958937	-2229,666710	-5994,553864	-8582,809567	0,000000	0,000000	1735503357,542413	0,000000
134570,000000	10240,325332	6204,155087	-3797,829151	-6130,103767	-3106,404841	-2219,317853	-6004,621089	-8619,672060	0,000000	0,000000	1735503357,543413	0,000000
134571,000000	10336,960852	6179,121137	-3917,469084	-6164,190173	-3117,205203	-2204,753458	-5952,800810	-8618,867397	0,000000	0,000000	1735503357,545413	0,000000
134572,000000	10514,406860	6184,360385	-4090,520740	-6158,249080	-3164,742887	-2222,666144	-5975,492299	-8631,196618	0,000000	0,000000	1735503357,547413	0,000000
134573,000000	10677,248240	6212,572753	-4224,215448	-6152,428687	-3094,419837	-2217,373252	-5986,484885	-8605,183661	0,000000	0,000000	1735503357,549413	0,000000
134574,000000	10798,117518	6261,250377	-4297,323525	-6167,176366	-3115,966916	-2211,253345	-5950,543284	-8609,645069	0,000000	0,000000	1735503357,551413	0,000000
134575,000000	10795,328021	6312,395632	-4244,506359	-6167,864799	-3108,456731	-2218,472958	-5948,218703	-8598,956466	0,000000	0,000000	1735503357,553413	0,000000
134576,000000	10629,527271	6330,339611	-4059,331119	-6171,293557	-3111,608326	-2187,001705	-5940,122902	-8578,661084	0,000000	0,000000	1735503357,555413	0,000000
134577,000000	10445,509851	6306,114793	-3899,931908	-6122,951210	-3100,150824	-2106,526494	-5935,902894	-8601,652086	0,000000	0,000000	1735503357,557413	0,000000
134578,000000	10333,018005	6277,115643	-3815,634549	-6125,932932	-3100,597858	-2117,885649	-5957,959592	-8613,605797	0,000000	0,000000	1735503357,559413	0,000000
134579,000000	10264,009237	6243,968010	-3780,671954	-6147,328019	-3057,628870	-2143,160999	-5958,317220	-8612,810075	0,000000	0,000000	1735503357,562413	0,000000
134580,000000	10247,312486	6210,708618	-3797,109425	-6149,263680	-3057,007492	-2109,986544	-5989,645422	-8610,190451	0,000000	0,000000	1735503357,563413	0,000000
134581,000000	10338,892043	6185,670197	-3911,916912	-6169,496477	-3055,487573	-2111,957967	-5990,199745	-8642,944694	0,000000	0,000000	1735503357,565413	0,000000
134582,000000	10528,662801	6194,838881	-4091,638327	-6164,775789	-3060,919046	-2115,681767	-5986,462533	-8646,154404	0,000000	0,000000	1735503357,567413	0,000000
134583,000000	10681,807995	6226,962805	-4214,595258	-6174,337864	-3065,273166	-2124,832571	-5937,588215	-8659,037948	0,000000	0,000000	1735503357,569413	0,000000
134584,000000	10806,803405	6285,506487	-4282,785952	-6170,497835	-3061,826527	-2090,983093	-5975,832045	-8642,336726	0,000000	0,000000	1735503357,571413	0,000000
134585,000000	10781,572759	6337,831914	-4203,222692	-6190,118194	-3096,047044	-2145,583928	-5963,735282	-8619,359136	0,000000	0,000000	1735503357,573413	0,000000
134586,000000	10632,593930	6358,203292	-4033,899307	-6192,062795	-3130,437434	-2122,217417	-5935,402215	-8627,092838	0,000000	0,000000	1735503357,575413	0,000000
134587,000000	10453,194380	6333,589554	-3880,745173	-6145,803630	-3095,121682	-2120,505273	-5932,742357	-8592,098951	0,000000	0,000000	1735503357,577413	0,000000
134588,000000	10347,050428	6306,727231	-3801,123798	-6175,370514	-3092,770278	-2113,960683	-5968,558788	-8587,257564	0,000000	0,000000	1735503357,579413	0,000000
134589,000000	10281,175375	6268,554926	-3772,254288	-6149,415672	-3082,180023	-2142,508328	-5969,068408	-8597,011864	0,000000	0,000000	1735503357,582413	0,000000
134590,000000	10271,497071	6222,733855	-3808,656335	-6183,430552	-3073,614836	-2129,986882	-5985,063314	-8587,682247	0,000000	0,000000	1735503357,583413	0,000000
134591,000000	10368,119180	6193,940341	-3933,481872	-6139,715016	-3072,845936	-2152,740955	-5976,037681	-8631,098270	0,000000	0,000000	1735503357,585413	0,000000
134592,000000	10548,734665	6187,860668	-4121,316969	-6177,283823	-3067,244589	-2130,268514	-5983,927846	-8633,539081	0,000000	0,000000	1735503357,587413	0,000000
134593,000000	10690,690577	6210,744381	-4240,635037	-6172,603369	-3084,951639	-2139,678597	-5982,510746	-8579,139411	0,000000	0,000000	1735503357,589413	0,000000
134594,000000	10809,928179	6255,219877	-4312,460124	-6172,724068	-3110,419214	-2101,372182	-5974,271894	-8602,774143	0,000000	0,000000	1735503357,591413	0,000000
134595,000000	10795,167089	6316,526234	-4238,180816	-6146,094203	-3104,366362	-2102,060616	-5958,379805	-8577,266335	0,000000	0,000000	1735503357,593413	0,000000
134596,000000	10642,473400	6334,568560	-4063,533247	-6149,397790	-3142,440319	-2107,442915	-5918,915570	-8592,407405	0,000000	0,000000	1735503357,595413	0,000000
134597,000000	10443,207622	6308,805943	-3895,671666	-6150,273979	-3174,398839	-2113,562822	-5941,562355	-8577,226102	0,000000	0,000000	1735503357,597413	0,000000
134598,000000	10341,261327	6263,490021	-3824,092448	-6302,413344	-3218,919039	-2145,713568	-6024,746597	-8634,026349	0,000000	0,000000	1735503357,599413	0,000000
134599,000000	10274,197161	6222,939491	-3804,847598	-6173,256040	-3185,883164	-2072,069049	-5975,617468	-8655,059338	0,000000	0,000000	1735503357,602413	0,000000
134600,000000	10247,352719	6172,661483	-3834,445775	-6151,592731	-3153,710067	-2054,084837	-5968,505144	-8606,247604	0,000000	0,000000	1735503357,603413	0,000000
134601,000000	10326,531529	6137,099862	-3949,289024	-6179,974973	-3164,559603	-2124,045789	-5961,272120	-8596,497774	0,000000	0,000000	1735503357,605413	0,000000
134602,000000	10502,721369	6130,872667	-4130,172729	-6212,881207	-3149,463236	-2110,880613	-6005,166471	-8647,415042	0,000000	0,000000	1735503357,607413	0,000000
134603,000000	10653,184354	6153,970957	-4258,820415	-6210,556626	-3124,411404	-2003,771067	-5942,139030	-8624,437451	0,000000	0,000000	1735503357,609413	0,000000
134604,000000	10772,815347	6201,271713	-4331,745207	-6186,671555	-3129,985929	-2090,133727	-5988,411605	-8617,360890	0,000000	0,000000	1735503357,611413	0,000000
134605,000000	10751,849413	6247,186661	-4262,419045	-6178,870797	-3161,729872	-2090,205252	-5965,228379	-8616,189659	0,000000	0,000000	1735503357,613413	0,000000
134606,000000	10598,082840	6271,858513	-4085,697234	-6137,242913	-3153,946996	-2071,961761	-6000,204384	-8609,390259	0,000000	0,000000	1735503357,615413	0,000000
134607,000000	10413,779318	6246,981025	-3928,148746	-6143,537164	-3152,927756	-2074,134350	-5967,396498	-8594,320714	0,000000	0,000000	1735503357,617413	0,000000
134608,000000	10305,400193	6223,748624	-3841,821849	-6150,582433	-3163,616359	-2159,446478	-5955,831707	-8622,752130	0,000000	0,000000	1735503357,619413	0,000000
134609,000000	10227,642953	6185,750663	-3801,257908	-6122,253835	-3145,095706	-2216,456831	-5962,997675	-8628,143370	0,000000	0,000000	1735503357,622413	0,000000
134610,000000	10219,877958	6144,493818	-3834,597766	-6122,097373	-3146,316111	-2220,962942	-5931,472778	-8597,704768	0,000000	0,000000	1735503357,623413	0,000000
134611,000000	10306,915641	6120,412052	-3945,654631	-6187,485158	-3151,832521	-2146,482468	-5953,998864	-8631,245792	0,000000	0,000000	1735503357,625413	0,000000
134612,000000	10478,304327	6121,444702	-4114,660621	-6144,364178	-3124,187887	-2221,763134	-5953,216553	-8582,259715	0,000000	0,000000	1735503357,627413	0,000000
134613,000000	10637,497902	6154,842675	-4243,272543	-6214,128435	-3103,592992	-2226,287127	-5945,549905	-8576,685190	0,000000	0,000000	1735503357,629413	0,000000
134614,000000	10756,386817	6197,319925	-4318,329692	-6212,089956	-3109,994531	-2218,271792	-5922,456086	-8605,049551	0,000000	0,000000	1735503357,631413	0,000000
134615,000000	10753,427446	6250,458956	-4262,007773	-6202,809513	-3155,873716	-2223,993838	-5980,834365	-8630,003035	0,000000	0,000000	1735503357,633413	0,000000
134616,000000	10599,249601	6272,833049	-4085,487127	-6196,953356	-3140,151501	-2210,292220	-5971,978605	-8605,903387	0,000000	0,000000	1735503357,635413	0,000000
134617,000000	10428,558290	6257,803738	-3928,533196	-6171,298027	-3151,957691	-2205,754817	-5972,076952	-8632,341027	0,000000	0,000000	1735503357,637413	0,000000
134618,000000	10315,909982	6233,122945	-3843,118250	-6152,307987	-3135,801852	-2177,050710	-5931,830406	-8593,761921	0,000000	0,000000	1735503357,639413	0,000000
134619,000000	10231,304169	6195,017695	-3797,252476	-6181,365252	-3112,672269	-2203,921974	-5964,678526	-8612,926304	0,000000	0,000000	1735503357,642413	0,000000
134620,000000	10223,092139	6159,961224	-3824,190795	-6144,708395	-3094,531596	-2179,554105	-5916,872621	-8609,645069	0,000000	0,000000	1735503357,643413	0,000000
134621,000000	10319,240391	6138,351560	-3941,510618	-6169,375777	-3121,599555	-2172,414958	-5958,893895	-8655,551076	0,000000	0,000000	1735503357,645413	0,000000
134622,000000	10501,433909	6143,009663	-4118,809104	-6153,827906	-3129,382432	-2211,423218	-6010,320783	-8661,568165	0,000000	0,000000	1735503357,647413	0,000000
134623,000000	10668,097436	6175,544858	-4253,683984	-6166,023016	-3112,211823	-2186,259627	-5973,234773	-8642,841876	0,000000	0,000000	1735503357,649413	0,000000
134624,000000	10797,084868	6227,459013	-4329,000413	-6153,506041	-3171,689808	-2192,907035	-6005,519629	-8621,741831	0,000000	0,000000	1735503357,651413	0,000000
134625,000000	10784,903169	6276,793778	-4269,535840	-6187,909842	-3138,577938	-2206,291258	-6001,357734	-8648,376167	0,000000	0,000000	1735503357,653413	0,000000
134626,000000	10630,644858	6291,791797	-4096,922278	-6193,408370	-3130,964935	-2193,054557	-5986,672640	-8639,994264	0,000000	0,000000	1735503357,655413	0,000000
134627,000000	10449,314117	6269,770861	-3938,806057	-6172,205508	-3146,490455	-2178,025246	-5971,522629	-8617,226779	0,000000	0,000000	1735503357,657413	0,000000
134628,000000	10337,144136	6241,799891	-3855,188191	-6199,966371	-3148,019314	-2176,339924	-6022,462249	-8646,865189	0,000000	0,000000	1735503357,659413	0,000000
134629,000000	10256,981850	6205,715239	-3810,516000	-6146,916747	-3121,496737	-2136,366069	-5986,431241	-8634,625375	0,000000	0,000000	1735503357,662413	0,000000
134630,000000	10226,476192	6154,677272	-3834,517300	-6131,891906	-3142,614663	-2109,579742	-6000,325084	-8648,979664	0,000000	0,000000	1735503357,663413	0,000000
134631,000000	10314,014554	6106,191874	-3965,489566	-6159,558892	-3120,356798	-2106,490731	-5982,269347	-8663,749695	0,000000	0,000000	1735503357,665413	0,000000
134632,000000	10492,175817	6090,429425	-4155,971110	-6176,939607	-3110,437095	-2086,365223	-5929,975212	-8653,320372	0,000000	0,000000	1735503357,667413	0,000000
134633,000000	10656,818748	6122,164428	-4285,195470	-6217,932701	-3154,170513	-2073,177695	-5948,513746	-8628,992736	0,000000	0,000000	1735503357,669413	0,000000
134634,000000	10804,264247	6190,082431	-4371,589422	-6172,125041	-3119,529784	-2107,907832	-5977,177620	-8632,166684	0,000000	0,000000	1735503357,671413	0,000000
134635,000000	10835,261643	6271,134317	-4323,582351	-6155,128777	-3111,112118	-2212,849259	-5925,258994	-8629,176021	0,000000	0,000000	1735503357,673413	0,000000
134636,000000	10720,610619	6335,806847	-4145,148396	-6174,574792	-3117,120266	-2216,680348	-5941,021442	-8659,529686	0,000000	0,000000	1735503357,675413	0,000000
134637,000000	10587,215424	6359,428167	-3989,996016	-6194,812059	-3086,815774	-2206,407487	-5945,098400	-8660,522103	0,000000	0,000000	1735503357,677413	0,000000
134638,000000	10537,572205	6408,244371	-3889,784217	-6158,119440	-3070,642054	-2215,263247	-5974,236131	-8685,614169	0,000000	0,000000	1735503357,679413	0,000000
134639,000000	10514,724255	6452,196836	-3822,872043	-6184,253097	-3071,317077	-2236,631513	-5975,729227	-8652,323484	0,000000	0,000000	1735503357,682413	0,000000
134640,000000	10540,916026	6509,292126	-3793,649375	-6202,742457	-3062,443435	-2193,304896	-5998,764932	-8637,392521	0,000000	0,000000	1735503357,683413	0,000000
134641,000000	10653,707385	6574,603915	-3840,574622	-6145,110726	-3066,457808	-2213,001251	-5994,817615	-8652,068675	0,000000	0,000000	1735503357,685413	0,000000
134642,000000	10876,929760	6691,932678	-3946,061432	-6163,305044	-3065,349162	-2202,366292	-6018,072367	-8633,695543	0,000000	0,000000	1735503357,687413	0,000000
134643,000000	11069,995165	6895,226240	-3936,450183	-6162,115932	-3097,620606	-2243,721485	-5991,344154	-8656,673133	0,000000	0,000000	1735503357,689413	0,000000
134644,000000	11209,550500	7119,436562	-3852,613270	-6157,082319	-3104,737401	-2220,006287	-5966,243148	-8650,951087	0,000000	0,000000	1735503357,691413	0,000000
134645,000000	11225,835979	7299,810648	-3680,589795	-6163,054705	-3120,745718	-2226,050198	-5972,778797	-8629,596233	0,000000	0,000000	1735503357,693413	0,000000
134646,000000	11088,457704	7478,772104	-3361,000121	-6235,706806	-3163,638711	-2278,192341	-5965,889990	-8647,978306	0,000000	0,000000	1735503357,695413	0,000000
134647,000000	10928,481817	7560,244203	-3123,173118	-6206,282973	-3113,110363	-2249,318361	-5965,179205	-8655,528724	0,000000	0,000000	1735503357,697413	0,000000
134648,000000	10821,372271	7572,989166	-3013,439476	-6145,526469	-3111,317754	-2186,112106	-5959,457159	-8651,885390	0,000000	0,000000	1735503357,699413	0,000000
134649,000000	10722,412169	7483,761013	-3004,941344	-6163,801253	-3105,340898	-2184,793353	-5952,152610	-8653,132617	0,000000	0,000000	1735503357,702413	0,000000
134650,000000	10735,657811	7294,562459	-3203,286231	-6153,555214	-3096,288443	-2215,003967	-5933,520198	-8643,297851	0,000000	0,000000	1735503357,703413	0,000000
134651,000000	10832,718015	7148,247957	-3447,599709	-6133,621931	-3075,058758	-2212,934196	-5962,648988	-8665,980399	0,000000	0,000000	1735503357,705413	0,000000
134652,000000	10923,331976	7027,356327	-3660,839796	-6192,719936	-3049,099445	-2204,731107	-5972,193182	-8642,072976	0,000000	0,000000	1735503357,707413	0,000000
134653,000000	11018,648744	6843,321025	-3936,190903	-6164,060533	-3075,411916	-2243,524790	-6001,956761	-8661,013842	0,000000	0,000000	1735503357,709413	0,000000
134654,000000	11092,378199	6619,030237	-4233,232141	-6166,183949	-3074,759245	-2266,815305	-6006,959081	-8652,238548	0,000000	0,000000	1735503357,711413	0,000000
134655,000000	10992,032290	6448,656321	-4303,219914	-6169,916689	-3104,826808	-2217,628062	-6016,404927	-8654,750884	0,000000	0,000000	1735503357,713413	0,000000
134656,000000	10746,641457	6289,713085	-4217,013717	-6162,191927	-3120,924532	-2234,208584	-5978,026986	-8646,623790	0,000000	0,000000	1735503357,715413	0,000000
134657,000000	10516,481102	6129,620969	-4147,928953	-6173,059344	-3083,780408	-2221,244574	-5932,804942	-8636,985719	0,000000	0,000000	1735503357,717413	0,000000
134658,000000	10398,830473	6016,422808	-4142,649472	-6139,540672	-3127,053380	-2229,970694	-5915,410817	-8611,518145	0,000000	0,000000	1735503357,719413	0,000000
134659,000000	10336,804390	5995,211005	-4100,292921	-6179,903448	-3128,671646	-2230,323851	-5945,125222	-8640,114963	0,000000	0,000000	1735503357,722413	0,000000
134660,000000	10308,592021	5995,868146	-4072,026908	-6200,686097	-3088,214993	-2230,010927	-5921,696126	-8663,181961	0,000000	0,000000	1735503357,723413	0,000000
134661,000000	10368,610919	6013,503671	-4114,553332	-6153,787673	-3086,096048	-2218,575776	-5982,027948	-8657,982945	0,000000	0,000000	1735503357,725413	0,000000
134662,000000	10543,866456	6047,907472	-4254,908860	-6153,988838	-3066,712618	-2195,982635	-5959,627032	-8648,188412	0,000000	0,000000	1735503357,727413	0,000000
134663,000000	10711,656511	6100,952625	-4368,956387	-6170,091033	-3087,647259	-2224,588394	-5954,298377	-8672,931790	0,000000	0,000000	1735503357,729413	0,000000
134664,000000	10840,192437	6162,866950	-4436,489940	-6150,394678	-3089,989722	-2225,567400	-5962,023139	-8666,199446	0,000000	0,000000	1735503357,731413	0,000000
134665,000000	10832,507908	6227,803230	-4363,135993	-6189,537048	-3126,990795	-2236,479521	-5954,387784	-8624,356985	0,000000	0,000000	1735503357,733413	0,000000
134666,000000	10664,033890	6251,621246	-4171,425104	-6143,210828	-3116,820753	-2232,308686	-5934,718251	-8595,308661	0,000000	0,000000	1735503357,735413	0,000000
134667,000000	10473,614931	6232,836843	-3999,759257	-6173,032522	-3142,216802	-2235,741913	-5944,320560	-8625,237644	0,000000	0,000000	1735503357,737413	0,000000
134668,000000	10348,936915	6204,463542	-3902,868927	-6180,846691	-3133,799136	-2227,842808	-5965,948105	-8639,189601	0,000000	0,000000	1735503357,739413	0,000000
134669,000000	10267,192125	6170,091033	-3857,012093	-6176,425517	-3121,957183	-2231,740952	-5975,662172	-8643,892407	0,000000	0,000000	1735503357,742413	0,000000
134670,000000	10250,692070	6128,168106	-3882,457316	-6161,583960	-3089,377284	-2208,276093	-5920,319259	-8626,574278	0,000000	0,000000	1735503357,743413	0,000000
134671,000000	10345,767438	6109,061837	-3994,967043	-6114,193797	-3082,604706	-2215,602994	-5931,159854	-8633,083105	0,000000	0,000000	1735503357,745413	0,000000
134672,000000	10523,481667	6116,402149	-4165,560007	-6162,630022	-3121,268749	-2225,236595	-5937,829614	-8645,680547	0,000000	0,000000	1735503357,747413	0,000000
134673,000000	10681,374371	6145,437062	-4295,481741	-6176,979840	-3102,050722	-2225,589752	-5943,574011	-8622,291684	0,000000	0,000000	1735503357,749413	0,000000
134674,000000	10792,574286	6189,465523	-4362,004995	-6186,787784	-3131,747246	-2218,852937	-5960,874259	-8628,304303	0,000000	0,000000	1735503357,751413	0,000000
134675,000000	10795,310140	6246,328354	-4309,491813	-6181,123853	-3117,549419	-2245,335281	-5936,032534	-8632,810414	0,000000	0,000000	1735503357,753413	0,000000
134676,000000	10643,215477	6270,785630	-4132,354259	-6183,944643	-3141,322732	-2222,156525	-5899,715424	-8604,007959	0,000000	0,000000	1735503357,755413	0,000000
134677,000000	10448,585451	6243,154407	-3965,163231	-6169,469655	-3139,194846	-2248,737216	-5914,963782	-8620,610833	0,000000	0,000000	1735503357,757413	0,000000
134678,000000	10341,359675	6215,348840	-3886,055946	-6177,896261	-3130,522370	-2237,704396	-5945,004523	-8618,728817	0,000000	0,000000	1735503357,759413	0,000000
134679,000000	10273,861885	6182,844937	-3850,096464	-6144,015491	-3105,685115	-2240,534127	-5912,420154	-8621,701598	0,000000	0,000000	1735503357,762413	0,000000
134680,000000	10256,136954	6143,201888	-3871,732950	-6166,335940	-3092,546761	-2247,087657	-5927,507579	-8645,989001	0,000000	0,000000	1735503357,763413	0,000000
134681,000000	10354,708135	6123,098731	-3988,525271	-6152,290106	-3069,023788	-2227,163315	-5936,832726	-8633,503318	0,000000	0,000000	1735503357,765413	0,000000
134682,000000	10536,360741	6133,300066	-4163,257778	-6174,311042	-3067,463636	-2229,809761	-5938,643217	-8592,371643	0,000000	0,000000	1735503357,767413	0,000000
134683,000000	10699,506104	6167,484820	-4289,773107	-6188,106537	-3100,186586	-2224,731445	-5906,707048	-8611,540496	0,000000	0,000000	1735503357,769413	0,000000
134684,000000	10832,203925	6213,717163	-4375,720024	-6179,335713	-3087,732196	-2233,578265	-5903,783441	-8612,135053	0,000000	0,000000	1735503357,771413	0,000000
134685,000000	10824,385285	6270,401180	-4311,279953	-6164,011359	-3095,801175	-2230,292559	-5947,458744	-8587,047458	0,000000	0,000000	1735503357,773413	0,000000
134686,000000	10664,547980	6290,218234	-4131,598771	-6170,158088	-3102,658689	-2219,523489	-5923,891068	-8617,673814	0,000000	0,000000	1735503357,775413	0,000000
134687,000000	10484,768450	6269,082427	-3972,503543	-6153,385341	-3095,792234	-2275,733650	-5906,823277	-8611,464500	0,000000	0,000000	1735503357,777413	0,000000
134688,000000	10375,915468	6243,681908	-3892,676532	-6139,835715	-3090,852499	-2238,799632	-5911,052227	-8608,008921	0,000000	0,000000	1735503357,779413	0,000000
134689,000000	10307,881236	6213,663518	-3852,841258	-6173,872948	-3128,930926	-2258,817852	-5891,279876	-8616,158366	0,000000	0,000000	1735503357,782413	0,000000
134690,000000	10299,409926	6177,543104	-3880,517185	-6150,059402	-3100,074828	-2241,379023	-5893,144011	-8602,103591	0,000000	0,000000	1735503357,783413	0,000000
134691,000000	10387,252271	6153,009832	-3994,515538	-6178,611517	-3073,722124	-2231,624722	-5931,325257	-8615,519106	0,000000	0,000000	1735503357,785413	0,000000
134692,000000	10581,922531	6159,876287	-4177,075624	-6243,029237	-3123,266995	-2255,040407	-5954,732001	-8628,912270	0,000000	0,000000	1735503357,787413	0,000000
134693,000000	10754,773021	6190,685928	-4315,008223	-6223,703921	-3120,271862	-2240,556479	-5949,059129	-8633,074164	0,000000	0,000000	1735503357,789413	0,000000
134694,000000	10883,867741	6232,090294	-4394,356906	-6285,122037	-3169,311583	-2218,441665	-5982,327461	-8634,191751	0,000000	0,000000	1735503357,791413	0,000000
134695,000000	10876,902938	6282,730401	-4335,227609	-6296,959519	-3155,341744	-2261,200547	-5989,238620	-8658,854663	0,000000	0,000000	1735503357,793413	0,000000
134696,000000	10736,127198	6302,444637	-4191,340506	-6204,839051	-3173,424304	-2234,414220	-5969,323218	-8670,553565	0,000000	0,000000	1735503357,795413	0,000000
134697,000000	10551,497340	6286,816299	-4023,362696	-6178,969145	-3148,193657	-2208,048105	-5920,788646	-8679,968119	0,000000	0,000000	1735503357,797413	0,000000
134698,000000	10437,369347	6260,624528	-3934,979439	-6191,495061	-3112,640977	-2225,987613	-5880,743265	-8655,256033	0,000000	0,000000	1735503357,799413	0,000000
134699,000000	10364,668071	6231,513619	-3892,560303	-6170,569360	-3105,725348	-2213,394642	-5909,071863	-8623,838425	0,000000	0,000000	1735503357,802413	0,000000
134700,000000	10344,864428	6187,798083	-3917,258978	-6142,303348	-3119,793534	-2232,787013	-5916,944146	-8642,564714	0,000000	0,000000	1735503357,803413	0,000000
134701,000000	10426,609218	6161,293387	-4024,676979	-6177,873909	-3117,236495	-2235,876024	-5914,427340	-8638,966084	0,000000	0,000000	1735503357,805413	0,000000
134702,000000	10611,292720	6170,345843	-4200,071096	-6181,401014	-3102,618456	-2200,663090	-5905,924737	-8661,018312	0,000000	0,000000	1735503357,807413	0,000000
134703,000000	10768,930614	6194,226444	-4332,321882	-6155,768037	-3125,748038	-2216,711640	-5902,080238	-8649,574220	0,000000	0,000000	1735503357,809413	0,000000
134704,000000	10885,334015	6245,130301	-4400,973022	-6155,186892	-3126,280010	-2213,363349	-5918,955803	-8623,954654	0,000000	0,000000	1735503357,811413	0,000000
134705,000000	10871,104896	6292,994320	-4338,969290	-6185,625494	-3129,592538	-2223,023772	-5916,143954	-8601,589501	0,000000	0,000000	1735503357,813413	0,000000
134706,000000	10717,749596	6316,754222	-4158,237576	-6183,452904	-3143,133223	-2208,714187	-5935,437977	-8609,220386	0,000000	0,000000	1735503357,815413	0,000000
134707,000000	10520,535707	6290,647388	-3988,949955	-6197,386980	-3121,259809	-2184,283733	-5906,943977	-8616,493642	0,000000	0,000000	1735503357,817413	0,000000
134708,000000	10407,453775	6262,135506	-3904,616833	-6145,714223	-3126,052022	-2244,704962	-5930,113792	-8594,633639	0,000000	0,000000	1735503357,819413	0,000000
134709,000000	10324,873030	6232,318282	-3850,673139	-6201,969087	-3093,481064	-2234,195173	-5896,541476	-8621,974289	0,000000	0,000000	1735503357,822413	0,000000
134710,000000	10305,534303	6196,394563	-3868,934512	-6181,253493	-3129,467368	-2224,060893	-5914,860964	-8609,662950	0,000000	0,000000	1735503357,823413	0,000000
134711,000000	10386,103392	6168,611348	-3977,957368	-6145,204604	-3133,213520	-2212,433517	-5895,651877	-8608,151972	0,000000	0,000000	1735503357,825413	0,000000
134712,000000	10574,300587	6176,881492	-4156,923294	-6134,466827	-3141,970932	-2231,316268	-5910,985172	-8638,572693	0,000000	0,000000	1735503357,827413	0,000000
134713,000000	10730,642080	6207,190454	-4283,335805	-6150,206923	-3143,875301	-2229,340374	-5936,305225	-8637,191355	0,000000	0,000000	1735503357,829413	0,000000
134714,000000	10850,836337	6258,912385	-4351,177812	-6142,486632	-3143,262863	-2240,306139	-5901,753902	-8624,790609	0,000000	0,000000	1735503357,831413	0,000000
134715,000000	10846,728086	6315,627694	-4291,252792	-6151,539087	-3159,999847	-2250,927687	-5887,399614	-8579,371870	0,000000	0,000000	1735503357,833413	0,000000
134716,000000	10697,418451	6338,855624	-4117,248952	-6174,275279	-3158,055246	-2189,773321	-5919,344723	-8620,132506	0,000000	0,000000	1735503357,835413	0,000000
134717,000000	10520,240664	6325,949728	-3954,157233	-6153,336167	-3129,503131	-2245,979011	-5903,358757	-8619,435132	0,000000	0,000000	1735503357,837413	0,000000
134718,000000	10408,285260	6305,050850	-3864,093125	-6142,017245	-3161,363304	-2231,034636	-5857,452750	-8613,842726	0,000000	0,000000	1735503357,839413	0,000000
134719,000000	10334,935784	6266,646087	-3827,615082	-6127,917767	-3146,624565	-2231,736481	-5960,744619	-8616,055548	0,000000	0,000000	1735503357,842413	0,000000
134720,000000	10320,152342	6227,293611	-3851,312399	-6100,420654	-3136,231005	-2198,342979	-5960,713327	-8612,796664	0,000000	0,000000	1735503357,843413	0,000000
134721,000000	10409,961641	6208,638847	-3962,825239	-6151,789427	-3125,613928	-2135,141194	-5931,365490	-8603,145182	0,000000	0,000000	1735503357,845413	0,000000
134722,000000	10592,557490	6215,773523	-4135,385156	-6187,051535	-3108,702600	-2127,054334	-5931,530893	-8622,953296	0,000000	0,000000	1735503357,847413	0,000000
134723,000000	10761,384666	6249,032915	-4273,554683	-6151,007116	-3136,973083	-2078,743279	-5936,823785	-8588,084579	0,000000	0,000000	1735503357,849413	0,000000
134724,000000	10885,503888	6295,622885	-4349,778593	-6206,779182	-3151,555359	-2116,195858	-5941,785872	-8601,924777	0,000000	0,000000	1735503357,851413	0,000000
134725,000000	10886,196792	6350,125372	-4296,393692	-6173,738837	-3176,897764	-2140,478790	-5975,139141	-8596,247435	0,000000	0,000000	1735503357,853413	0,000000
134726,000000	10750,995576	6371,900439	-4139,636457	-6158,043444	-3162,235022	-2111,765742	-5960,056186	-8618,058264	0,000000	0,000000	1735503357,855413	0,000000
134727,000000	10575,914383	6355,002522	-3981,292248	-6152,535975	-3134,751320	-2125,489712	-5895,803869	-8633,565903	0,000000	0,000000	1735503357,857413	0,000000
134728,000000	10477,195680	6339,083612	-3896,749020	-6138,516963	-3149,767220	-2118,287981	-5950,230360	-8604,946733	0,000000	0,000000	1735503357,859413	0,000000
134729,000000	10405,594110	6315,533817	-3851,316869	-6154,659390	-3153,397143	-2085,220814	-5969,166756	-8617,722988	0,000000	0,000000	1735503357,862413	0,000000
134730,000000	10401,932895	6270,539761	-3890,195489	-6115,593016	-3148,077428	-2067,719400	-5921,839178	-8634,303510	0,000000	0,000000	1735503357,863413	0,000000
134731,000000	10486,954451	6242,255867	-4005,181789	-6132,665277	-3110,244870	-2090,911567	-5982,497334	-8635,126054	0,000000	0,000000	1735503357,865413	0,000000
134732,000000	10672,187805	6251,603365	-4180,146754	-6130,479276	-3135,538101	-2083,168924	-5985,760689	-8625,666797	0,000000	0,000000	1735503357,867413	0,000000
134733,000000	10839,432478	6280,423701	-4315,888882	-6165,428460	-3138,779104	-2094,742656	-5986,033380	-8622,331917	0,000000	0,000000	1735503357,869413	0,000000
134734,000000	10977,365077	6335,677207	-4396,641254	-6210,793555	-3187,523782	-2084,250748	-5926,962197	-8627,799153	0,000000	0,000000	1735503357,871413	0,000000
134735,000000	10974,696279	6390,380859	-4344,069958	-6180,283427	-3152,462840	-2125,310898	-5956,453085	-8629,743755	0,000000	0,000000	1735503357,873413	0,000000
134736,000000	10831,654072	6420,984864	-4170,830548	-6132,392585	-3182,181716	-2108,761668	-5926,774442	-8631,393313	0,000000	0,000000	1735503357,875413	0,000000
134737,000000	10652,236640	6408,007443	-4005,365074	-6140,175462	-3160,902858	-2104,550600	-5939,054489	-8611,652255	0,000000	0,000000	1735503357,877413	0,000000
134738,000000	10548,453033	6383,384764	-3926,490247	-6116,040051	-3125,144541	-2066,051960	-5881,829560	-8611,384034	0,000000	0,000000	1735503357,879413	0,000000
134739,000000	10483,811796	6358,936429	-3885,188699	-6124,967337	-3110,253811	-2077,133954	-5898,329616	-8605,228364	0,000000	0,000000	1735503357,882413	0,000000
134740,000000	10472,430289	6318,613887	-3913,727403	-6124,676764	-3102,108836	-2144,412696	-5962,371826	-8633,069694	0,000000	0,000000	1735503357,883413	0,000000
134741,000000	10566,303134	6297,165155	-4027,980566	-6150,631607	-3097,786009	-2126,893401	-5940,985680	-8643,548191	0,000000	0,000000	1735503357,885413	0,000000
134742,000000	10758,407414	6308,385730	-4208,976030	-6159,058213	-3125,873208	-2104,921639	-5912,853777	-8635,814488	0,000000	0,000000	1735503357,887413	0,000000
134743,000000	10929,577053	6348,212063	-4342,617095	-6132,204831	-3104,411066	-2113,643289	-5929,040909	-8627,289534	0,000000	0,000000	1735503357,889413	0,000000
134744,000000	11060,343683	6402,356923	-4417,772591	-6121,793389	-3133,490682	-2131,801844	-5967,351794	-8587,132394	0,000000	0,000000	1735503357,891413	0,000000
134745,000000	11054,340005	6458,687782	-4355,768859	-6126,415730	-3141,112626	-2104,023099	-5919,094384	-8638,527989	0,000000	0,000000	1735503357,893413	0,000000
134746,000000	10914,838314	6492,787600	-4182,900488	-6153,067946	-3145,757318	-2129,468322	-5950,999260	-8604,235947	0,000000	0,000000	1735503357,895413	0,000000
134747,000000	10738,116503	6478,871405	-4019,357264	-6150,671840	-3172,601759	-2132,034302	-5884,766579	-8635,586500	0,000000	0,000000	1735503357,897413	0,000000
134748,000000	10626,201332	6451,065838	-3934,863210	-6162,504852	-3142,163157	-2117,581666	-5957,928300	-8607,342839	0,000000	0,000000	1735503357,899413	0,000000
134749,000000	10547,254980	6423,443556	-3884,406388	-6115,248799	-3111,183643	-2086,687088	-5927,883089	-8620,136976	0,000000	0,000000	1735503357,902413	0,000000
134750,000000	10528,644919	6391,480565	-3898,027539	-6126,299500	-3118,877113	-2093,361318	-5905,629694	-8600,901067	0,000000	0,000000	1735503357,903413	0,000000
134751,000000	10611,547530	6362,061203	-4010,166228	-6155,857444	-3122,082353	-2107,040584	-5942,045152	-8608,925343	0,000000	0,000000	1735503357,905413	0,000000
134752,000000	10794,129968	6368,181109	-4184,970260	-6118,132174	-3153,549135	-2060,607076	-5942,782760	-8643,333614	0,000000	0,000000	1735503357,907413	0,000000
134753,000000	10956,788063	6400,541961	-4315,987229	-6159,415841	-3143,030405	-2083,718777	-5954,423547	-8610,190451	0,000000	0,000000	1735503357,909413	0,000000
134754,000000	11085,811257	6443,586946	-4400,691390	-6149,634719	-3157,362342	-2078,510821	-5956,229568	-8629,265428	0,000000	0,000000	1735503357,911413	0,000000
134755,000000	11077,840626	6498,679519	-4340,104759	-6163,492799	-3129,744530	-2075,658739	-5914,051831	-8594,723046	0,000000	0,000000	1735503357,913413	0,000000
134756,000000	10921,128094	6522,050500	-4159,726202	-6147,354841	-3154,966235	-2071,769536	-5957,700312	-8584,222198	0,000000	0,000000	1735503357,915413	0,000000
134757,000000	10730,905831	6501,460075	-3990,532458	-6152,008474	-3145,091236	-2071,604133	-5905,799568	-8598,607779	0,000000	0,000000	1735503357,917413	0,000000
134758,000000	10608,793795	6476,426125	-3895,197809	-6155,996025	-3102,305532	-2068,465948	-5913,269520	-8601,428568	0,000000	0,000000	1735503357,919413	0,000000
134759,000000	10532,355309	6443,551183	-3848,701715	-6161,722541	-3112,238646	-2070,978284	-5906,483531	-8628,666401	0,000000	0,000000	1735503357,922413	0,000000
134760,000000	10506,208241	6401,619315	-3866,122663	-6127,001345	-3113,226593	-2113,848925	-5937,279761	-8620,950580	0,000000	0,000000	1735503357,923413	0,000000
134761,000000	10587,255657	6369,057298	-3977,648914	-6074,354053	-3085,112572	-2045,939863	-5926,461518	-8637,759089	0,000000	0,000000	1735503357,925413	0,000000
134762,000000	10759,605467	6371,797621	-4147,464037	-6111,708283	-3074,213862	-2041,375637	-5921,244621	-8626,212180	0,000000	0,000000	1735503357,927413	0,000000
134763,000000	10917,140543	6401,664019	-4275,494814	-6176,501513	-3107,178211	-2165,745199	-5879,688263	-8621,563017	0,000000	0,000000	1735503357,929413	0,000000
134764,000000	11023,387313	6441,177428	-4341,736436	-6173,796952	-3129,623830	-2199,742198	-5899,585783	-8619,256318	0,000000	0,000000	1735503357,931413	0,000000
134765,000000	11018,072069	6496,632099	-4280,859232	-6154,552102	-3133,799136	-2193,443477	-5945,040286	-8627,454937	0,000000	0,000000	1735503357,933413	0,000000
134766,000000	10866,867006	6526,315212	-4101,938009	-6191,624701	-3148,037195	-2233,350277	-5976,265669	-8626,221120	0,000000	0,000000	1735503357,935413	0,000000
134767,000000	10666,447878	6504,303217	-3922,663629	-6157,551706	-3115,949035	-2210,931480	-5946,855247	-8619,175851	0,000000	0,000000	1735503357,937413	0,000000
134768,000000	10529,610515	6459,957361	-3831,101954	-6135,244668	-3110,146523	-2232,728899	-5911,052227	-8611,857891	0,000000	0,000000	1735503357,939413	0,000000
134769,000000	10439,148545	6417,493522	-3781,673312	-6143,702567	-3109,247983	-2255,482972	-5918,070674	-8617,709577	0,000000	0,000000	1735503357,942413	0,000000
134770,000000	10405,191779	6361,618638	-3803,443909	-6132,642925	-3084,044158	-2237,261832	-5919,532478	-8603,838086	0,000000	0,000000	1735503357,943413	0,000000
134771,000000	10470,396280	6320,969760	-3910,709918	-6127,189100	-3077,445924	-2188,083529	-5938,035250	-8611,907065	0,000000	0,000000	1735503357,945413	0,000000
134772,000000	10621,789098	6311,443448	-4069,434106	-6145,039201	-3069,815040	-2231,611311	-5933,189392	-8617,870510	0,000000	0,000000	1735503357,947413	0,000000
134773,000000	10764,929652	6329,378486	-4196,687043	-6151,516736	-3100,253642	-2221,217752	-5955,357850	-8623,901010	0,000000	0,000000	1735503357,949413	0,000000
134774,000000	10881,364346	6368,967891	-4271,958768	-6176,827848	-3109,730780	-2212,773263	-5926,868320	-8611,562848	0,000000	0,000000	1735503357,951413	0,000000
134775,000000	10862,526298	6407,435238	-4214,966297	-6164,883077	-3120,338917	-2217,829227	-5897,234380	-8586,832881	0,000000	0,000000	1735503357,953413	0,000000
134776,000000	10703,667998	6416,912377	-4045,298696	-6149,102747	-3159,521520	-2246,434987	-5932,666361	-8603,279293	0,000000	0,000000	1735503357,955413	0,000000
134777,000000	10501,264036	6385,856867	-3876,565397	-6135,074794	-3156,284988	-2212,889493	-5949,725211	-8598,035574	0,000000	0,000000	1735503357,957413	0,000000
134778,000000	10378,691554	6354,573369	-3784,579039	-6144,784391	-3151,734173	-2180,452645	-5972,725153	-8594,334126	0,000000	0,000000	1735503357,959413	0,000000
134779,000000	10282,847285	6306,324899	-3737,148643	-6143,666804	-3127,098083	-2236,931026	-5960,735679	-8630,338311	0,000000	0,000000	1735503357,962413	0,000000
134780,000000	10258,832574	6259,287894	-3758,709133	-6133,063138	-3098,241985	-2253,095806	-5949,068069	-8625,443280	0,000000	0,000000	1735503357,963413	0,000000
134781,000000	10333,952308	6220,230460	-3872,796893	-6162,375212	-3054,852784	-2230,887115	-5925,022066	-8608,031273	0,000000	0,000000	1735503357,965413	0,000000
134782,000000	10508,452356	6208,701432	-4057,413340	-6140,019000	-3099,471331	-2210,064232	-5902,223289	-8623,176813	0,000000	0,000000	1735503357,967413	0,000000
134783,000000	10658,459365	6234,303117	-4185,131192	-6134,819984	-3089,345992	-2171,905339	-5902,777612	-8612,461388	0,000000	0,000000	1735503357,969413	0,000000
134784,000000	10787,321627	6270,669401	-4273,661971	-6190,676987	-3110,159934	-2251,370251	-5937,203765	-8612,421155	0,000000	0,000000	1735503357,971413	0,000000
134785,000000	10778,170824	6320,057809	-4218,448699	-6135,812402	-3126,811981	-2230,972052	-5959,233642	-8607,883751	0,000000	0,000000	1735503357,973413	0,000000
134786,000000	10616,737604	6332,699955	-4043,957591	-6153,684855	-3119,802475	-2220,028639	-5953,757465	-8630,405366	0,000000	0,000000	1735503357,975413	0,000000
134787,000000	10434,083641	6311,510503	-3882,993758	-6195,294857	-3138,238192	-2191,074193	-5917,552114	-8603,744209	0,000000	0,000000	1735503357,977413	0,000000
134788,000000	10318,914056	6278,698146	-3800,037503	-6159,290671	-3153,817356	-2232,751250	-5928,374827	-8607,789874	0,000000	0,000000	1735503357,979413	0,000000
134789,000000	10238,116980	6243,485212	-3753,979504	-6179,527938	-3121,756017	-2204,445004	-5919,152498	-8633,682132	0,000000	0,000000	1735503357,982413	0,000000
134790,000000	10215,644538	6196,779013	-3777,547181	-6143,952906	-3116,717935	-2217,426896	-5891,217291	-8630,199730	0,000000	0,000000	1735503357,983413	0,000000
134791,000000	10299,235582	6161,467731	-3897,817433	-6147,511303	-3109,851480	-2218,008041	-5911,977589	-8612,215519	0,000000	0,000000	1735503357,985413	0,000000
134792,000000	10473,087430	6160,640717	-4073,770344	-6136,326492	-3125,609457	-2234,123647	-5946,891010	-8659,623563	0,000000	0,000000	1735503357,987413	0,000000
134793,000000	10628,499091	6192,214787	-4194,648564	-6154,860556	-3103,382885	-2197,238803	-5913,689733	-8613,552153	0,000000	0,000000	1735503357,989413	0,000000
134794,000000	10757,660866	6233,873963	-4284,869134	-6177,534163	-3121,232986	-2251,325548	-5912,058055	-8582,442999	0,000000	0,000000	1735503357,991413	0,000000
134795,000000	10754,451156	6288,005412	-4228,274524	-6192,237139	-3131,099045	-2253,895998	-5933,681130	-8586,148918	0,000000	0,000000	1735503357,993413	0,000000
134796,000000	10605,646670	6306,914985	-4058,240354	-6148,369610	-3142,096102	-2216,076851	-5891,257524	-8574,534953	0,000000	0,000000	1735503357,995413	0,000000
134797,000000	10420,292616	6287,969649	-3891,997039	-6156,004965	-3128,001094	-2232,863009	-5887,453258	-8574,678004	0,000000	0,000000	1735503357,997413	0,000000
134798,000000	10308,913887	6254,938245	-3814,901412	-6164,351106	-3116,548061	-2250,798047	-5900,877714	-8601,437509	0,000000	0,000000	1735503357,999413	0,000000
134799,000000	10233,762860	6225,013733	-3768,977523	-6163,273752	-3165,543079	-2196,644247	-5858,695507	-8622,372150	0,000000	0,000000	1735503358,002413	0,000000
134800,000000	10206,744075	6183,028221	-3784,029186	-6124,788523	-3149,633110	-2190,274000	-5900,086462	-8598,478138	0,000000	0,000000	1735503358,003413	0,000000
134801,000000	10292,167962	6150,189042	-3901,045024	-6162,276864	-3087,866306	-2217,431366	-5950,668454	-8630,481362	0,000000	0,000000	1735503358,005413	0,000000
134802,000000	10471,504927	6158,754230	-4071,843624	-6165,017188	-3083,668649	-2243,627608	-5945,004523	-8614,607155	0,000000	0,000000	1735503358,007413	0,000000
134803,000000	10640,577972	6188,522279	-4212,078452	-6112,651527	-3123,092651	-2232,804894	-5932,179093	-8584,968746	0,000000	0,000000	1735503358,009413	0,000000
134804,000000	10770,186782	6231,933832	-4297,149181	-6151,928008	-3138,189018	-2236,720920	-5920,578539	-8577,588201	0,000000	0,000000	1735503358,011413	0,000000
134805,000000	10760,347545	6286,016107	-4235,275090	-6182,031333	-3179,423511	-2237,851918	-5933,681130	-8588,035405	0,000000	0,000000	1735503358,013413	0,000000
134806,000000	10618,418455	6313,057244	-4064,820707	-6191,392243	-3164,143860	-2249,389887	-5896,979570	-8595,433831	0,000000	0,000000	1735503358,015413	0,000000
134807,000000	10430,547595	6291,344762	-3897,884488	-6170,609593	-3175,659478	-2187,104523	-5847,747624	-8592,925966	0,000000	0,000000	1735503358,017413	0,000000
134808,000000	10319,606960	6266,739964	-3812,684119	-6140,282750	-3193,974495	-2058,809996	-5864,216387	-8608,639240	0,000000	0,000000	1735503358,019413	0,000000
134809,000000	10245,497525	6232,340634	-3772,513568	-6138,226390	-3175,337613	-2059,113979	-5930,350721	-8624,222875	0,000000	0,000000	1735503358,022413	0,000000
134810,000000	10225,197673	6194,740534	-3791,423142	-6139,357388	-3154,335916	-2093,741298	-5910,126865	-8626,118302	0,000000	0,000000	1735503358,023413	0,000000
134811,000000	10305,449367	6162,638962	-3902,587295	-6133,452058	-3124,026954	-2118,100226	-5928,692222	-8611,522615	0,000000	0,000000	1735503358,025413	0,000000
134812,000000	10493,476689	6175,464392	-4078,124464	-6160,730124	-3133,186698	-2116,410434	-5917,860568	-8604,231477	0,000000	0,000000	1735503358,027413	0,000000
134813,000000	10647,583008	6195,393205	-4210,191965	-6165,423989	-3159,034252	-2102,100849	-5915,620923	-8613,672853	0,000000	0,000000	1735503358,029413	0,000000
134814,000000	10773,231089	6238,576770	-4293,049872	-6194,601953	-3164,063394	-2145,950496	-5941,772461	-8579,300344	0,000000	0,000000	1735503358,031413	0,000000
134815,000000	10772,810876	6298,729777	-4233,925045	-6185,030937	-3165,596724	-2129,973471	-5965,514481	-8548,486233	0,000000	0,000000	1735503358,033413	0,000000
134816,000000	10625,767708	6330,142915	-4055,687785	-6151,829660	-3175,275028	-2159,410715	-5896,407366	-8558,893204	0,000000	0,000000	1735503358,035413	0,000000
134817,000000	10436,975956	6313,052773	-3883,159161	-6120,903790	-3140,030801	-2126,522362	-5909,684300	-8572,974801	0,000000	0,000000	1735503358,037413	0,000000
134818,000000	10315,722227	6274,531782	-3795,862198	-6152,053177	-3160,308301	-2122,132480	-5941,732228	-8596,274257	0,000000	0,000000	1735503358,039413	0,000000
134819,000000	10233,271122	6239,792705	-3751,972318	-6173,595786	-3168,582916	-2115,722001	-5930,234492	-8638,697863	0,000000	0,000000	1735503358,042413	0,000000
134820,000000	10219,247639	6195,504963	-3783,103824	-6148,003042	-3128,188848	-2122,355998	-5923,524499	-8625,385165	0,000000	0,000000	1735503358,043413	0,000000
134821,000000	10311,032832	6170,175970	-3899,994493	-6121,569872	-3120,669723	-2139,678597	-5893,635750	-8627,584577	0,000000	0,000000	1735503358,045413	0,000000
134822,000000	10497,920215	6183,023751	-4074,838758	-6176,528335	-3134,889901	-2113,468945	-5931,302905	-8645,872772	0,000000	0,000000	1735503358,047413	0,000000
134823,000000	10655,616224	6209,756434	-4205,462337	-6133,604050	-3119,400144	-2132,999897	-5940,471590	-8604,495227	0,000000	0,000000	1735503358,049413	0,000000
134824,000000	10784,228146	6257,759035	-4285,481572	-6192,134321	-3137,147427	-2131,019533	-5947,163701	-8616,238832	0,000000	0,000000	1735503358,051413	0,000000
134825,000000	10781,340301	6307,737529	-4229,186475	-6148,758531	-3122,757375	-2088,859677	-5959,716439	-8623,239398	0,000000	0,000000	1735503358,053413	0,000000
134826,000000	10638,114810	6334,505975	-4063,023627	-6142,634153	-3163,397312	-2097,053826	-5927,740037	-8609,180152	0,000000	0,000000	1735503358,055413	0,000000
134827,000000	10451,334715	6321,984529	-3888,572752	-6140,582263	-3157,925606	-2119,356394	-5895,495415	-8602,505922	0,000000	0,000000	1735503358,057413	0,000000
134828,000000	10335,011780	6290,683150	-3804,038465	-6149,634719	-3138,881922	-2132,186294	-5878,700316	-8626,109362	0,000000	0,000000	1735503358,059413	0,000000
134829,000000	10249,422491	6251,522899	-3759,527206	-6148,995459	-3135,596216	-2143,871784	-5939,228833	-8622,510731	0,000000	0,000000	1735503358,062413	0,000000
134830,000000	10232,882202	6209,000945	-3784,391284	-6139,446795	-3119,042516	-2125,342190	-5911,302567	-8622,179925	0,000000	0,000000	1735503358,063413	0,000000
134831,000000	10317,148268	6182,147563	-3893,575072	-6140,761077	-3152,686357	-2105,252445	-5926,975608	-8637,964725	0,000000	0,000000	1735503358,065413	0,000000
134832,000000	10503,856838	6185,942888	-4076,184332	-6167,221069	-3149,789572	-2110,567689	-5939,242244	-8642,613888	0,000000	0,000000	1735503358,067413	0,000000
134833,000000	10675,558448	6219,381094	-4214,376211	-6190,623343	-3114,429116	-2094,590664	-5960,883200	-8637,978137	0,000000	0,000000	1735503358,069413	0,000000
134834,000000	10812,078416	6266,131997	-4294,730723	-6240,914762	-3196,536005	-2140,809596	-5951,490998	-8627,401292	0,000000	0,000000	1735503358,071413	0,000000
134835,000000	10817,201436	6315,779686	-4247,237742	-6292,024255	-3206,093609	-2119,320631	-5899,375677	-8634,169400	0,000000	0,000000	1735503358,073413	0,000000
134836,000000	10664,722323	6339,883804	-4084,374011	-6215,451658	-3191,582859	-2134,662867	-5913,640559	-8639,033139	0,000000	0,000000	1735503358,075413	0,000000
134837,000000	10482,966900	6329,914927	-3912,904859	-6202,970445	-3198,055923	-2118,386328	-5926,184356	-8667,366207	0,000000	0,000000	1735503358,077413	0,000000
134838,000000	10381,132364	6311,237812	-3829,286993	-6186,984479	-3217,202425	-2130,934596	-5969,738960	-8665,926754	0,000000	0,000000	1735503358,079413	0,000000
134839,000000	10307,832062	6276,462972	-3790,426254	-6201,629341	-3144,107759	-2123,871446	-5966,359377	-8656,597137	0,000000	0,000000	1735503358,082413	0,000000
134840,000000	10286,061466	6226,846576	-3818,996251	-6171,745062	-3167,223930	-2117,344737	-5943,010747	-8666,311204	0,000000	0,000000	1735503358,083413	0,000000
134841,000000	10370,618105	6203,332543	-3926,356137	-6193,457544	-3153,553605	-2106,723189	-5914,463103	-8677,831292	0,000000	0,000000	1735503358,085413	0,000000
134842,000000	10549,061000	6205,303967	-4103,051126	-6213,650107	-3121,009469	-2108,006179	-5933,341384	-8676,128089	0,000000	0,000000	1735503358,087413	0,000000
134843,000000	10724,204779	6237,226725	-4244,121909	-6186,260283	-3088,608384	-2104,447782	-5940,699577	-8662,037551	0,000000	0,000000	1735503358,089413	0,000000
134844,000000	10852,414370	6288,796663	-4322,469234	-6204,088032	-3159,432113	-2119,235694	-5949,027836	-8637,638390	0,000000	0,000000	1735503358,091413	0,000000
134845,000000	10844,796896	6337,822974	-4264,806211	-6207,101047	-3143,021464	-2145,785093	-5924,119055	-8625,000715	0,000000	0,000000	1735503358,093413	0,000000
134846,000000	10699,027777	6367,747486	-4089,277983	-6211,182475	-3149,226308	-2114,139497	-5951,513350	-8629,430830	0,000000	0,000000	1735503358,095413	0,000000
134847,000000	10502,640903	6342,208385	-3921,090066	-6204,266846	-3104,183078	-2122,315764	-5951,938033	-8650,128543	0,000000	0,000000	1735503358,097413	0,000000
134848,000000	10392,138362	6318,631768	-3835,992515	-6180,028617	-3094,504774	-2118,444443	-5937,293172	-8624,535799	0,000000	0,000000	1735503358,099413	0,000000
134849,000000	10319,262743	6279,641390	-3798,879683	-6173,779070	-3111,429513	-2089,087665	-5905,441940	-8647,088706	0,000000	0,000000	1735503358,102413	0,000000
134850,000000	10291,184485	6227,655709	-3821,629286	-6187,623739	-3075,626493	-2097,974718	-5956,153572	-8647,888899	0,000000	0,000000	1735503358,103413	0,000000
134851,000000	10374,547541	6201,159954	-3933,691978	-6165,415049	-3085,917234	-2083,151042	-5925,174057	-8648,380637	0,000000	0,000000	1735503358,105413	0,000000
134852,000000	10552,114248	6201,821566	-4110,221565	-6153,805554	-3088,255227	-2123,039961	-5949,684978	-8660,088480	0,000000	0,000000	1735503358,107413	0,000000
134853,000000	10719,184577	6234,155595	-4242,847860	-6149,102747	-3074,871004	-2078,711987	-5920,140445	-8646,087348	0,000000	0,000000	1735503358,109413	0,000000
134854,000000	10843,142867	6284,844875	-4316,791892	-6198,737025	-3108,783066	-2126,620710	-5869,549513	-8652,301133	0,000000	0,000000	1735503358,111413	0,000000
134855,000000	10838,368535	6331,738830	-4267,685115	-6199,103594	-3147,630394	-2097,621560	-5930,650234	-8649,408817	0,000000	0,000000	1735503358,113413	0,000000
134856,000000	10690,855980	6353,947520	-4096,622765	-6209,211051	-3182,177246	-2134,627104	-5953,873694	-8629,511297	0,000000	0,000000	1735503358,115413	0,000000
134857,000000	10506,494343	6334,908307	-3931,273520	-6245,863438	-3192,575276	-2103,258669	-5950,127542	-8633,521199	0,000000	0,000000	1735503358,117413	0,000000
134858,000000	10387,900472	6315,113604	-3832,653165	-6228,692830	-3195,530176	-2115,190029	-5988,322198	-8647,321165	0,000000	0,000000	1735503358,119413	0,000000
134859,000000	10316,303372	6285,868585	-3789,281845	-6192,880869	-3187,179565	-2139,991522	-5906,389654	-8662,524819	0,000000	0,000000	1735503358,122413	0,000000
134860,000000	10295,914114	6244,137883	-3810,006380	-6159,129739	-3166,495264	-2101,591229	-5947,507918	-8640,012145	0,000000	0,000000	1735503358,123413	0,000000
134861,000000	10369,241238	6211,186945	-3918,300569	-6134,256721	-3140,383959	-2084,156871	-5967,861414	-8646,874130	0,000000	0,000000	1735503358,125413	0,000000
134862,000000	10546,360910	6214,736402	-4091,182351	-6123,402715	-3154,653311	-2094,912529	-5884,064734	-8638,729155	0,000000	0,000000	1735503358,127413	0,000000
134863,000000	10707,494617	6242,313981	-4226,700962	-6124,171615	-3137,773275	-2115,690708	-5916,041136	-8620,481193	0,000000	0,000000	1735503358,129413	0,000000
134864,000000	10833,647847	6287,138164	-4305,526614	-6169,411540	-3149,820864	-2108,153701	-5996,762216	-8597,297966	0,000000	0,000000	1735503358,131413	0,000000
134865,000000	10831,305385	6336,843967	-4254,028201	-6145,361066	-3173,124790	-2138,695121	-5963,806808	-8601,155877	0,000000	0,000000	1735503358,133413	0,000000
134866,000000	10693,073273	6364,408135	-4087,029397	-6177,435815	-3153,459728	-2155,588567	-5979,019403	-8628,290892	0,000000	0,000000	1735503358,135413	0,000000
134867,000000	10499,654710	6340,062618	-3918,305039	-6166,224182	-3160,889447	-2157,913148	-5973,780155	-8617,387712	0,000000	0,000000	1735503358,137413	0,000000
134868,000000	10381,489992	6307,183206	-3832,912445	-6148,821115	-3146,186471	-2121,300995	-5959,273875	-8651,697636	0,000000	0,000000	1735503358,139413	0,000000
134869,000000	10305,167735	6274,554133	-3789,822757	-6193,225086	-3149,315715	-2148,118615	-5931,647122	-8639,788628	0,000000	0,000000	1735503358,142413	0,000000
134870,000000	10274,930298	6229,989231	-3803,806007	-6157,895923	-3073,954582	-2088,734508	-5940,243602	-8639,819920	0,000000	0,000000	1735503358,143413	0,000000
134871,000000	10356,608033	6200,788915	-3910,410404	-6199,519336	-3102,131188	-2134,752274	-5947,655439	-8633,024991	0,000000	0,000000	1735503358,145413	0,000000
134872,000000	10532,936454	6206,747890	-4080,373049	-6179,197133	-3123,530746	-2114,702761	-5915,544927	-8620,074391	0,000000	0,000000	1735503358,147413	0,000000
134873,000000	10684,463382	6230,320036	-4215,100408	-6161,297858	-3123,566508	-2131,278813	-5931,875110	-8636,386693	0,000000	0,000000	1735503358,149413	0,000000
134874,000000	10812,552273	6271,219254	-4300,546646	-6155,155599	-3131,036460	-2112,820745	-5875,405669	-8605,420589	0,000000	0,000000	1735503358,151413	0,000000
134875,000000	10820,339620	6328,940392	-4251,135886	-6173,054874	-3141,966462	-2145,811915	-5876,031518	-8613,909781	0,000000	0,000000	1735503358,153413	0,000000
134876,000000	10681,481659	6352,020800	-4089,094698	-6193,023920	-3156,065941	-2141,976357	-5890,595913	-8603,511751	0,000000	0,000000	1735503358,155413	0,000000
134877,000000	10487,678647	6331,685185	-3916,637599	-6187,471747	-3150,831163	-2153,009176	-5908,843875	-8593,645692	0,000000	0,000000	1735503358,157413	0,000000
134878,000000	10375,043750	6308,425963	-3826,372325	-6162,017584	-3162,623942	-2142,879367	-5932,514369	-8594,946563	0,000000	0,000000	1735503358,159413	0,000000
134879,000000	10293,097794	6273,534894	-3781,159222	-6169,018149	-3185,252845	-2163,425088	-5923,238397	-8625,617623	0,000000	0,000000	1735503358,162413	0,000000
134880,000000	10271,720588	6221,669912	-3809,702396	-6152,459979	-3140,737116	-2109,865844	-5961,678922	-8611,491323	0,000000	0,000000	1735503358,163413	0,000000
134881,000000	10351,686180	6193,511188	-3916,753829	-6151,346862	-3153,879941	-2100,661397	-5935,455859	-8575,057983	0,000000	0,000000	1735503358,165413	0,000000
134882,000000	10527,178645	6196,931005	-4089,443386	-6181,494892	-3157,594800	-2124,367654	-5924,360454	-8561,079204	0,000000	0,000000	1735503358,167413	0,000000
134883,000000	10691,790283	6225,313246	-4223,634303	-6143,988669	-3146,852553	-2102,789283	-5928,821862	-8628,603816	0,000000	0,000000	1735503358,169413	0,000000
134884,000000	10822,807252	6271,831691	-4308,973253	-6181,231141	-3160,867095	-2136,571705	-5913,770199	-8634,522557	0,000000	0,000000	1735503358,171413	0,000000
134885,000000	10819,512606	6326,951087	-4254,519939	-6171,718240	-3169,803321	-2109,928429	-5953,484774	-8629,886806	0,000000	0,000000	1735503358,173413	0,000000
134886,000000	10668,571293	6341,175735	-4084,686935	-6191,436946	-3176,039457	-2136,728168	-5955,120921	-8605,863154	0,000000	0,000000	1735503358,175413	0,000000
134887,000000	10490,043461	6330,960989	-3919,874132	-6190,001965	-3157,863021	-2137,885988	-5940,270424	-8660,164475	0,000000	0,000000	1735503358,177413	0,000000
134888,000000	10380,434990	6305,310130	-3835,375607	-6173,899770	-3147,362173	-2126,097679	-5950,690806	-8658,792078	0,000000	0,000000	1735503358,179413	0,000000
134889,000000	10303,956270	6275,837123	-3786,858916	-6181,204319	-3129,315376	-2086,566389	-5948,406458	-8623,252809	0,000000	0,000000	1735503358,182413	0,000000
134890,000000	10279,811919	6231,142581	-3809,666634	-6157,842278	-3118,805587	-2098,171413	-5930,238962	-8633,078635	0,000000	0,000000	1735503358,183413	0,000000
134891,000000	10355,785489	6201,119721	-3915,788233	-6181,235611	-3114,017844	-2079,659700	-5895,915627	-8638,402820	0,000000	0,000000	1735503358,185413	0,000000
134892,000000	10532,176495	6201,839447	-4090,212286	-6154,471636	-3118,255734	-2127,255499	-5949,993432	-8639,734983	0,000000	0,000000	1735503358,187413	0,000000
134893,000000	10697,297752	6232,796609	-4223,902524	-6143,474579	-3083,713353	-2137,103677	-5971,120298	-8619,712293	0,000000	0,000000	1735503358,189413	0,000000
134894,000000	10816,535354	6274,522841	-4300,519824	-6177,748740	-3092,300892	-2091,349661	-5893,698335	-8639,153838	0,000000	0,000000	1735503358,191413	0,000000
134895,000000	10820,527375	6329,557300	-4252,253473	-6180,408597	-3143,897653	-2129,553258	-5860,157311	-8623,851836	0,000000	0,000000	1735503358,193413	0,000000
134896,000000	10685,460269	6352,467835	-4093,386233	-6187,739968	-3126,101196	-2080,540359	-5910,457671	-8650,754392	0,000000	0,000000	1735503358,195413	0,000000
134897,000000	10496,512055	6334,657967	-3921,966255	-6148,257852	-3112,287819	-2075,766027	-5959,381163	-8632,850647	0,000000	0,000000	1735503358,197413	0,000000
134898,000000	10368,682444	6306,785345	-3821,052611	-6163,528562	-3103,181720	-2064,317465	-5937,051773	-8595,840633	0,000000	0,000000	1735503358,199413	0,000000
134899,000000	10283,397138	6274,849176	-3770,019114	-6146,295369	-3097,964823	-2108,533680	-5948,661268	-8589,304984	0,000000	0,000000	1735503358,202413	0,000000
134900,000000	10264,402628	6235,148013	-3789,648414	-6136,348844	-3111,429513	-2108,748257	-5896,653235	-8615,116775	0,000000	0,000000	1735503358,203413	0,000000
134901,000000	10339,732468	6202,156842	-3897,982836	-6154,234707	-3070,177138	-2107,393742	-5900,515616	-8650,575578	0,000000	0,000000	1735503358,205413	0,000000
134902,000000	10509,811342	6198,750436	-4069,724679	-6167,954206	-3082,707524	-2103,379369	-5923,524499	-8653,105795	0,000000	0,000000	1735503358,207413	0,000000
134903,000000	10676,166415	6232,425570	-4202,377796	-6176,970899	-3091,952205	-2110,630274	-5922,831595	-8641,317487	0,000000	0,000000	1735503358,209413	0,000000
134904,000000	10811,600089	6280,638278	-4288,499057	-6168,593466	-3098,487854	-2068,993449	-5907,846987	-8632,524312	0,000000	0,000000	1735503358,211413	0,000000
134905,000000	10812,078416	6333,160400	-4238,592088	-6173,229218	-3108,961880	-2116,285264	-5899,652839	-8610,825241	0,000000	0,000000	1735503358,213413	0,000000
134906,000000	10673,175752	6359,414756	-4073,676467	-6185,951829	-3143,329918	-2146,361768	-5949,161947	-8619,944751	0,000000	0,000000	1735503358,215413	0,000000
134907,000000	10479,082167	6336,589158	-3903,579712	-6137,967110	-3104,513884	-2117,304504	-5892,276764	-8649,837971	0,000000	0,000000	1735503358,217413	0,000000
134908,000000	10374,565423	6312,632561	-3822,979331	-6115,002930	-3080,070019	-2148,735523	-5869,692564	-8654,312789	0,000000	0,000000	1735503358,219413	0,000000
134909,000000	10299,754143	6278,765202	-3781,391680	-6122,262776	-3103,910387	-2102,114260	-5901,691318	-8643,163741	0,000000	0,000000	1735503358,222413	0,000000
134910,000000	10275,994241	6237,678230	-3797,806799	-6128,244102	-3068,424761	-2164,712548	-5910,529196	-8640,114963	0,000000	0,000000	1735503358,223413	0,000000
134911,000000	10343,997180	6203,877926	-3900,964558	-6109,169126	-3058,169782	-2106,392384	-5916,309357	-8606,368303	0,000000	0,000000	1735503358,225413	0,000000
134912,000000	10508,944094	6205,688417	-4063,689709	-6134,377420	-3065,277636	-2111,122012	-5936,595798	-8627,133071	0,000000	0,000000	1735503358,227413	0,000000
134913,000000	10669,326782	6233,918667	-4194,635153	-6145,508587	-3081,201017	-2110,134065	-5955,880880	-8647,124469	0,000000	0,000000	1735503358,229413	0,000000
134914,000000	10804,125667	6278,532743	-4282,620549	-6134,560704	-3108,224273	-2112,047374	-5956,283212	-8636,967838	0,000000	0,000000	1735503358,231413	0,000000
134915,000000	10808,967054	6331,636012	-4237,282276	-6134,431064	-3153,504431	-2099,154890	-5937,780440	-8638,921380	0,000000	0,000000	1735503358,233413	0,000000
134916,000000	10675,692558	6359,334290	-4075,880349	-6141,069531	-3140,620887	-2101,832628	-5911,025405	-8608,210087	0,000000	0,000000	1735503358,235413	0,000000
134917,000000	10488,268733	6346,723437	-3903,020918	-6170,082092	-3144,116700	-2127,693594	-5925,334990	-8602,219820	0,000000	0,000000	1735503358,237413	0,000000
134918,000000	10363,389552	6312,744319	-3812,380135	-6136,617064	-3070,892394	-2121,372521	-5918,249488	-8623,825014	0,000000	0,000000	1735503358,239413	0,000000
134919,000000	10283,441842	6278,148293	-3765,705228	-6145,521998	-3089,050949	-2237,686515	-5938,933790	-8636,842668	0,000000	0,000000	1735503358,242413	0,000000
134920,000000	10262,453556	6235,925853	-3786,693513	-6134,283543	-3071,196377	-2220,927179	-5946,019292	-8630,767465	0,000000	0,000000	1735503358,243413	0,000000
134921,000000	10341,060162	6208,898127	-3891,304135	-6123,813987	-3067,968786	-2180,206776	-5927,512050	-8629,104495	0,000000	0,000000	1735503358,245413	0,000000
134922,000000	10512,864590	6216,493249	-4055,911303	-6129,026413	-3061,947227	-2228,075266	-5956,368148	-8630,146086	0,000000	0,000000	1735503358,247413	0,000000
134923,000000	10681,745410	6242,211163	-4199,235141	-6129,531562	-3080,660105	-2240,149677	-5939,836800	-8612,908423	0,000000	0,000000	1735503358,249413	0,000000
134924,000000	10806,995630	6288,523972	-4279,772937	-6162,209809	-3088,313341	-2240,525186	-5929,009616	-8625,662327	0,000000	0,000000	1735503358,251413	0,000000
134925,000000	10809,722543	6336,446106	-4234,287143	-6157,086790	-3097,723424	-2247,177064	-5920,077860	-8609,350026	0,000000	0,000000	1735503358,253413	0,000000
134926,000000	10680,288076	6365,275383	-4075,263441	-6186,009943	-3125,855327	-2213,944495	-5949,689448	-8607,754111	0,000000	0,000000	1735503358,255413	0,000000
134927,000000	10485,139489	6346,231699	-3898,604214	-6168,995798	-3139,328957	-2219,134569	-5930,359662	-8582,402766	0,000000	0,000000	1735503358,257413	0,000000
134928,000000	10376,264155	6320,840120	-3815,209866	-6175,763905	-3101,643920	-2219,881117	-5920,743942	-8632,676303	0,000000	0,000000	1735503358,259413	0,000000
134929,000000	10299,378633	6287,330389	-3771,896660	-6166,648865	-3106,860816	-2240,824699	-5941,472948	-8656,561375	0,000000	0,000000	1735503358,262413	0,000000
134930,000000	10269,141197	6239,560246	-3789,635003	-6129,540503	-3101,925552	-2227,865160	-5918,236077	-8636,382222	0,000000	0,000000	1735503358,263413	0,000000
134931,000000	10353,863239	6218,259037	-3896,377981	-6130,532920	-3060,767055	-2203,179896	-5909,362435	-8615,130186	0,000000	0,000000	1735503358,265413	0,000000
134932,000000	10533,946753	6218,080223	-4075,643420	-6131,413579	-3085,063398	-2197,019756	-5931,589007	-8615,756035	0,000000	0,000000	1735503358,267413	0,000000
134933,000000	10695,286095	6238,456070	-4217,621684	-6166,617572	-3080,329299	-2185,513079	-5904,963613	-8615,076542	0,000000	0,000000	1735503358,269413	0,000000
134934,000000	10825,628042	6282,350421	-4302,178323	-6144,194305	-3052,125871	-2236,336470	-5922,514200	-8613,659441	0,000000	0,000000	1735503358,271413	0,000000
134935,000000	10836,853087	6334,179640	-4262,754321	-6171,047688	-3104,151785	-2250,127494	-5909,179151	-8619,506657	0,000000	0,000000	1735503358,273413	0,000000
134936,000000	10697,601736	6363,035738	-4094,450176	-6167,757511	-3150,035441	-2240,033448	-5945,849419	-8640,553057	0,000000	0,000000	1735503358,275413	0,000000
134937,000000	10507,616401	6347,925961	-3920,124471	-6170,716882	-3134,827316	-2244,450152	-5954,597890	-8611,048758	0,000000	0,000000	1735503358,277413	0,000000
134938,000000	10383,296013	6316,150725	-3827,261925	-6153,783202	-3153,419495	-2267,995477	-5967,669189	-8620,060980	0,000000	0,000000	1735503358,279413	0,000000
134939,000000	10303,053260	6280,258298	-3781,673312	-6163,689494	-3082,796931	-2233,931422	-5963,051319	-8630,163968	0,000000	0,000000	1735503358,282413	0,000000
134940,000000	10282,923281	6240,762770	-3801,687062	-6158,718467	-3052,456677	-2276,489139	-5963,225663	-8658,890426	0,000000	0,000000	1735503358,283413	0,000000
134941,000000	10356,219113	6213,511527	-3902,582824	-6179,523468	-3101,348877	-2217,131853	-5943,368375	-8657,303452	0,000000	0,000000	1735503358,285413	0,000000
134942,000000	10529,579222	6212,738156	-4076,546431	-6153,778732	-3099,913895	-2203,935385	-5929,751694	-8623,659611	0,000000	0,000000	1735503358,287413	0,000000
134943,000000	10693,721473	6240,029633	-4213,772714	-6145,642698	-3078,281879	-2159,915864	-5899,845064	-8652,015030	0,000000	0,000000	1735503358,289413	0,000000
134944,000000	10833,419859	6291,612983	-4300,935566	-6127,546728	-3080,794215	-2177,368104	-5923,613906	-8624,146879	0,000000	0,000000	1735503358,291413	0,000000
134945,000000	10838,265717	6345,601380	-4252,150655	-6158,865988	-3119,909763	-2180,542052	-5936,582386	-8616,878092	0,000000	0,000000	1735503358,293413	0,000000
134946,000000	10696,046054	6373,129785	-4082,876444	-6133,103371	-3123,575449	-2194,462717	-5943,104625	-8596,386015	0,000000	0,000000	1735503358,295413	0,000000
134947,000000	10494,013131	6343,643367	-3906,802833	-6163,331866	-3108,233213	-2195,012569	-5929,501355	-8605,974913	0,000000	0,000000	1735503358,297413	0,000000
134948,000000	10372,424126	6314,679980	-3818,061948	-6158,816814	-3092,761338	-2188,137174	-5949,398875	-8609,238267	0,000000	0,000000	1735503358,299413	0,000000
134949,000000	10294,666886	6283,794343	-3770,519793	-6161,619723	-3124,652803	-2248,759568	-5954,280496	-8645,613492	0,000000	0,000000	1735503358,302413	0,000000
134950,000000	10267,218947	6242,264807	-3784,735501	-6165,499985	-3094,169497	-2220,506966	-5898,874998	-8654,920757	0,000000	0,000000	1735503358,303413	0,000000
134951,000000	10351,145267	6212,295592	-3897,035122	-6152,701378	-3060,775995	-2223,891020	-5928,687751	-8632,872999	0,000000	0,000000	1735503358,305413	0,000000
134952,000000	10518,814623	6211,861968	-4064,400494	-6135,253608	-3051,643074	-2227,516472	-5928,513408	-8631,040156	0,000000	0,000000	1735503358,307413	0,000000
134953,000000	10681,311786	6238,858402	-4201,318324	-6180,730462	-3062,693775	-2219,085395	-5921,955407	-8633,641899	0,000000	0,000000	1735503358,309413	0,000000
134954,000000	10806,615651	6286,194921	-4277,922213	-6182,634830	-3077,843785	-2222,183347	-5911,628902	-8639,444411	0,000000	0,000000	1735503358,311413	0,000000
134955,000000	10813,575983	6338,189542	-4235,811532	-6189,545989	-3135,296702	-2260,248363	-5924,351513	-8596,962690	0,000000	0,000000	1735503358,313413	0,000000
134956,000000	10676,144063	6361,739337	-4075,862467	-6170,989573	-3093,588352	-2242,711186	-5924,847722	-8628,027141	0,000000	0,000000	1735503358,315413	0,000000
134957,000000	10476,055741	6344,899535	-3891,809285	-6130,184233	-3067,414463	-2223,332226	-5937,100947	-8619,332314	0,000000	0,000000	1735503358,317413	0,000000
134958,000000	10364,855826	6315,560639	-3808,589280	-6184,695661	-3101,398051	-2215,500176	-5940,203369	-8630,552888	0,000000	0,000000	1735503358,319413	0,000000
134959,000000	10271,152854	6282,274425	-3747,890890	-6166,653335	-3084,307909	-2193,568647	-5928,526819	-8608,402312	0,000000	0,000000	1735503358,322413	0,000000
134960,000000	10254,487395	6243,458390	-3772,245347	-6139,603257	-3129,726648	-2221,316099	-5904,494226	-8612,823486	0,000000	0,000000	1735503358,323413	0,000000
134961,000000	10338,695347	6214,955449	-3879,439831	-6145,182252	-3103,047609	-2202,996612	-5901,087821	-8634,129167	0,000000	0,000000	1735503358,325413	0,000000
134962,000000	10518,161952	6217,096746	-4059,836268	-6175,187230	-3091,022372	-2219,979465	-5915,987492	-8641,469479	0,000000	0,000000	1735503358,327413	0,000000
134963,000000	10678,388178	6243,239343	-4194,478691	-6168,691814	-3105,738759	-2206,934988	-5926,068127	-8604,307473	0,000000	0,000000	1735503358,329413	0,000000
134964,000000	10809,306800	6290,030479	-4279,384017	-6170,059741	-3122,538328	-2222,192287	-5935,107172	-8624,048531	0,000000	0,000000	1735503358,331413	0,000000
134965,000000	10817,103088	6344,018877	-4233,008623	-6144,368649	-3136,020899	-2213,855088	-5941,611528	-8634,594083	0,000000	0,000000	1735503358,333413	0,000000
134966,000000	10681,888461	6375,959516	-4067,382216	-6137,783825	-3120,794892	-2198,253572	-5903,215706	-8620,360494	0,000000	0,000000	1735503358,335413	0,000000
134967,000000	10491,697490	6360,112131	-3892,980516	-6170,824170	-3120,531142	-2199,478447	-5935,992301	-8626,239002	0,000000	0,000000	1735503358,337413	0,000000
134968,000000	10375,137627	6332,346797	-3803,506494	-6136,250496	-3129,132092	-2219,791710	-5904,534459	-8633,525670	0,000000	0,000000	1735503358,339413	0,000000
134969,000000	10287,916660	6291,183829	-3756,496310	-6174,565852	-3104,665875	-2237,865329	-5916,014314	-8624,401689	0,000000	0,000000	1735503358,342413	0,000000
134970,000000	10268,595815	6251,165271	-3777,913749	-6180,354953	-3113,521636	-2239,541709	-5923,001468	-8630,812168	0,000000	0,000000	1735503358,343413	0,000000
134971,000000	10348,673165	6224,893034	-3883,311152	-6138,065457	-3087,723255	-2238,433063	-5918,741226	-8583,891392	0,000000	0,000000	1735503358,345413	0,000000
134972,000000	10520,558059	6228,330731	-4052,840173	-6154,230237	-3081,353009	-2204,319835	-5886,362493	-8613,538742	0,000000	0,000000	1735503358,347413	0,000000
134973,000000	10686,863959	6256,525218	-4189,060628	-6159,125268	-3110,584617	-2248,768508	-5934,217572	-8604,329824	0,000000	0,000000	1735503358,349413	0,000000
134974,000000	10809,557140	6298,090518	-4270,653427	-6157,739460	-3144,961596	-2238,214016	-5895,996094	-8614,410460	0,000000	0,000000	1735503358,351413	0,000000
134975,000000	10817,974806	6350,715458	-4228,395224	-6146,577001	-3158,207238	-2245,983481	-5965,170264	-8616,797626	0,000000	0,000000	1735503358,353413	0,000000
134976,000000	10687,646270	6376,531720	-4070,475698	-6169,125438	-3162,802756	-2245,692909	-5967,181921	-8610,740304	0,000000	0,000000	1735503358,355413	0,000000
134977,000000	10497,124493	6354,247034	-3901,702166	-6167,837977	-3149,946034	-2232,782543	-5931,763351	-8618,451655	0,000000	0,000000	1735503358,357413	0,000000
134978,000000	10373,792052	6329,123676	-3806,050122	-6176,429987	-3145,068884	-2256,104350	-5949,233472	-8604,316413	0,000000	0,000000	1735503358,359413	0,000000
134979,000000	10301,792622	6302,064657	-3761,373460	-6139,352918	-3143,955767	-2234,284580	-5938,343704	-8612,962067	0,000000	0,000000	1735503358,362413	0,000000
134980,000000	10272,310674	6256,359816	-3776,335716	-6155,571342	-3095,072508	-2215,218544	-5977,852643	-8623,735607	0,000000	0,000000	1735503358,363413	0,000000
134981,000000	10355,275869	6226,077676	-3888,206184	-6147,336960	-3072,756529	-2227,051556	-5963,811278	-8649,945259	0,000000	0,000000	1735503358,365413	0,000000
134982,000000	10530,441999	6227,101386	-4060,220718	-6137,265265	-3075,058758	-2246,408165	-5924,727023	-8640,794456	0,000000	0,000000	1735503358,367413	0,000000
134983,000000	10685,187578	6255,018711	-4189,766943	-6179,769337	-3109,069169	-2184,654772	-5956,895649	-8608,679473	0,000000	0,000000	1735503358,369413	0,000000
134984,000000	10818,479955	6295,765936	-4281,140864	-6126,384437	-3096,252680	-2258,464694	-5958,196521	-8630,378544	0,000000	0,000000	1735503358,371413	0,000000
134985,000000	10830,661654	6353,478134	-4238,127172	-6146,089733	-3118,738532	-2260,829508	-5978,871882	-8649,399877	0,000000	0,000000	1735503358,373413	0,000000
134986,000000	10701,870918	6376,630068	-4083,935916	-6160,828471	-3117,021918	-2252,237499	-5927,681923	-8618,076146	0,000000	0,000000	1735503358,375413	0,000000
134987,000000	10493,476689	6358,046830	-3896,476328	-6148,552895	-3111,080825	-2260,163426	-5941,168964	-8642,412722	0,000000	0,000000	1735503358,377413	0,000000
134988,000000	10375,374556	6331,989169	-3803,430498	-6147,864461	-3104,764223	-2244,937420	-5949,828029	-8639,909327	0,000000	0,000000	1735503358,379413	0,000000
134989,000000	10297,639668	6301,331520	-3754,439950	-6177,306175	-3096,605837	-2223,180234	-5944,772065	-8585,903049	0,000000	0,000000	1735503358,382413	0,000000
134990,000000	10273,021460	6259,538233	-3771,981597	-6162,612140	-3084,835410	-2215,227485	-5974,227190	-8614,079654	0,000000	0,000000	1735503358,383413	0,000000
134991,000000	10355,959833	6230,212748	-3885,139525	-6169,094145	-3087,066114	-2209,559083	-5964,401364	-8630,923927	0,000000	0,000000	1735503358,385413	0,000000
134992,000000	10532,981157	6234,370172	-4057,270288	-6194,485724	-3099,694848	-2214,360237	-5969,135463	-8624,781668	0,000000	0,000000	1735503358,387413	0,000000
134993,000000	10693,296790	6265,130639	-4188,095033	-6209,269166	-3101,603687	-2202,956378	-5945,107341	-8638,966084	0,000000	0,000000	1735503358,389413	0,000000
134994,000000	10819,512606	6307,245791	-4271,565378	-6219,001114	-3114,482760	-2207,212150	-5973,605812	-8620,083332	0,000000	0,000000	1735503358,391413	0,000000
134995,000000	10831,868649	6363,424659	-4228,439927	-6216,327846	-3132,431209	-2204,735577	-5947,628617	-8638,420701	0,000000	0,000000	1735503358,393413	0,000000
134996,000000	10706,564784	6397,448480	-4066,367447	-6199,689209	-3126,204014	-2198,463678	-5974,911153	-8658,514917	0,000000	0,000000	1735503358,395413	0,000000
134997,000000	10515,113175	6374,377012	-3898,988664	-6177,574396	-3130,035102	-2233,833075	-5945,956707	-8626,896143	0,000000	0,000000	1735503358,397413	0,000000
134998,000000	10397,994518	6349,231303	-3807,176650	-6148,982048	-3082,582355	-2268,214524	-5948,294699	-8593,766391	0,000000	0,000000	1735503358,399413	0,000000
134999,000000	10314,796865	6313,151121	-3761,158884	-6155,464053	-3114,786744	-2246,068418	-5893,278122	-8587,118983	0,000000	0,000000	1735503358,402413	0,000000
135000,000000	10286,217928	6266,811490	-3778,423369	-6148,642302	-3105,363250	-2260,583639	-5983,297527	-8604,955673	0,000000	0,000000	1735503358,403413	0,000000
135001,000000	10359,768569	6234,951317	-3886,301816	-6156,250834	-3071,388602	-2240,239084	-5981,156230	-8611,102402	0,000000	0,000000	1735503358,405413	0,000000
135002,000000	10526,356101	6234,245002	-4052,889347	-6184,543669	-3087,218106	-2233,882248	-5963,207781	-8591,446280	0,000000	0,000000	1735503358,407413	0,000000
135003,000000	10691,253841	6262,323260	-4187,670350	-6174,758077	-3087,320924	-2271,915972	-5959,273875	-8601,084352	0,000000	0,000000	1735503358,409413	0,000000
135004,000000	10831,859708	6308,023632	-4277,408123	-6176,197529	-3152,646124	-2287,575603	-5945,120752	-8607,651293	0,000000	0,000000	1735503358,411413	0,000000
135005,000000	10837,666690	6362,266839	-4236,321151	-6186,908484	-3118,385375	-2253,091335	-5963,650346	-8604,504168	0,000000	0,000000	1735503358,413413	0,000000
135006,000000	10690,046847	6380,487978	-4069,527984	-6207,261980	-3111,281991	-2275,000513	-5966,649950	-8594,244719	0,000000	0,000000	1735503358,415413	0,000000
135007,000000	10508,662462	6356,754899	-3893,937171	-6214,566529	-3103,794158	-2275,483310	-5903,913081	-8627,021313	0,000000	0,000000	1735503358,417413	0,000000
135008,000000	10378,271341	6324,224174	-3815,053403	-6166,179478	-3120,575845	-2260,556817	-5997,186899	-8598,956466	0,000000	0,000000	1735503358,419413	0,000000
135009,000000	10296,294093	6290,334463	-3766,621649	-6176,774204	-3094,531596	-2287,329733	-5981,576443	-8606,341481	0,000000	0,000000	1735503358,422413	0,000000
135010,000000	10271,702707	6248,876452	-3781,405091	-6152,316928	-3084,173799	-2274,817228	-5952,326953	-8624,835312	0,000000	0,000000	1735503358,423413	0,000000
135011,000000	10353,380442	6222,045422	-3890,419006	-6157,086790	-3107,491136	-2239,993215	-5956,193805	-8625,425398	0,000000	0,000000	1735503358,425413	0,000000
135012,000000	10534,085333	6229,555607	-4064,159095	-6149,053574	-3069,931269	-2198,834717	-5943,037570	-8648,952842	0,000000	0,000000	1735503358,427413	0,000000
135013,000000	10682,934523	6243,029237	-4200,629890	-6153,264642	-3073,033690	-2225,714922	-5941,446126	-8624,862134	0,000000	0,000000	1735503358,429413	0,000000
135014,000000	10819,834471	6286,709011	-4294,145107	-6154,574454	-3100,463748	-2243,529260	-5955,974758	-8613,806963	0,000000	0,000000	1735503358,431413	0,000000
135015,000000	10823,643208	6337,586045	-4244,734347	-6172,706187	-3119,440377	-2209,679782	-5945,362151	-8626,596630	0,000000	0,000000	1735503358,433413	0,000000
135016,000000	10682,259500	6365,382671	-4077,525437	-6158,146262	-3111,599386	-2278,880775	-5960,083008	-8630,418777	0,000000	0,000000	1735503358,435413	0,000000
135017,000000	10495,179892	6355,382502	-3899,592161	-6156,416237	-3105,872869	-2264,682949	-5974,026024	-8617,691696	0,000000	0,000000	1735503358,437413	0,000000
135018,000000	10389,804840	6329,932809	-3819,318116	-6185,688078	-3104,518354	-2236,980200	-5966,055393	-8628,804982	0,000000	0,000000	1735503358,439413	0,000000
135019,000000	10307,711363	6293,919683	-3772,991896	-6131,927669	-3110,893071	-2263,216674	-5997,705460	-8658,523858	0,000000	0,000000	1735503358,442413	0,000000
135020,000000	10278,922319	6251,415610	-3787,297010	-6173,989177	-3123,660386	-2263,247967	-5966,475606	-8637,008071	0,000000	0,000000	1735503358,443413	0,000000
135021,000000	10353,299975	6223,945320	-3889,448941	-6132,477522	-3090,941906	-2255,456150	-5975,385010	-8635,519445	0,000000	0,000000	1735503358,445413	0,000000
135022,000000	10526,588559	6222,479045	-4063,667357	-6152,562797	-3077,428043	-2243,350446	-5942,827463	-8611,536026	0,000000	0,000000	1735503358,447413	0,000000
135023,000000	10697,320104	6251,281500	-4205,368459	-6141,315401	-3099,958599	-2263,462543	-5957,691371	-8645,340800	0,000000	0,000000	1735503358,449413	0,000000
135024,000000	10828,690231	6305,877864	-4281,543195	-6139,339507	-3102,850914	-2243,873477	-5986,002088	-8635,255694	0,000000	0,000000	1735503358,451413	0,000000
135025,000000	10853,585601	6362,199783	-4251,408577	-6208,316982	-3113,427758	-2279,596031	-5988,661945	-8609,439433	0,000000	0,000000	1735503358,453413	0,000000
135026,000000	10724,660754	6392,736733	-4093,354940	-6166,943908	-3127,656877	-2247,445285	-5974,370241	-8642,649651	0,000000	0,000000	1735503358,455413	0,000000
135027,000000	10522,167385	6371,444464	-3910,548985	-6171,986461	-3133,378923	-2264,066041	-5968,639255	-8630,499244	0,000000	0,000000	1735503358,457413	0,000000
135028,000000	10405,196249	6348,274648	-3816,193342	-6143,072248	-3145,015240	-2292,439342	-5924,583972	-8630,244434	0,000000	0,000000	1735503358,459413	0,000000
135029,000000	10327,550769	6326,991320	-3759,446740	-6159,353256	-3112,113476	-2259,926498	-5919,773877	-8605,805039	0,000000	0,000000	1735503358,462413	0,000000
135030,000000	10293,754935	6286,923587	-3767,600656	-6167,247891	-3102,484345	-2276,667953	-5955,612659	-8614,325523	0,000000	0,000000	1735503358,463413	0,000000
135031,000000	10373,604298	6262,810528	-3870,847821	-6165,133417	-3070,355952	-2255,465090	-5949,059129	-8625,581861	0,000000	0,000000	1735503358,465413	0,000000
135032,000000	10540,102422	6259,676814	-4040,148854	-6165,821850	-3067,266941	-2209,590375	-5963,842571	-8606,158197	0,000000	0,000000	1735503358,467413	0,000000
135033,000000	10704,615712	6287,916005	-4177,674651	-6198,182702	-3067,266941	-2263,024449	-6009,918451	-8621,335030	0,000000	0,000000	1735503358,469413	0,000000
135034,000000	10832,910240	6329,624355	-4261,811078	-6186,448038	-3108,063340	-2226,832509	-5977,267027	-8586,703241	0,000000	0,000000	1735503358,471413	0,000000
135035,000000	10841,564834	6380,599737	-4222,655296	-6179,818511	-3100,933135	-2241,575718	-5973,404646	-8615,076542	0,000000	0,000000	1735503358,473413	0,000000
135036,000000	10700,301826	6410,323083	-4050,104320	-6192,241609	-3070,360422	-2204,020321	-5959,439278	-8605,594933	0,000000	0,000000	1735503358,475413	0,000000
135037,000000	10508,568585	6391,717494	-3876,020014	-6178,991497	-3084,808588	-2208,173275	-5983,176827	-8598,437905	0,000000	0,000000	1735503358,477413	0,000000
135038,000000	10401,141644	6363,236904	-3796,184063	-6186,877191	-3060,941398	-2155,928314	-5964,995921	-8630,570769	0,000000	0,000000	1735503358,479413	0,000000
135039,000000	10319,942236	6335,328519	-3745,065629	-6183,390319	-3085,380793	-2205,745876	-5990,704894	-8633,096516	0,000000	0,000000	1735503358,482413	0,000000
135040,000000	10290,272534	6298,273802	-3749,383986	-6156,876683	-3084,401786	-2246,555686	-5987,271667	-8649,587631	0,000000	0,000000	1735503358,483413	0,000000
135041,000000	10366,912186	6274,893880	-3851,719201	-6152,933836	-3104,697168	-2238,491178	-5972,354114	-8638,295531	0,000000	0,000000	1735503358,485413	0,000000
135042,000000	10546,079278	6279,350817	-4022,929072	-6190,538406	-3126,820922	-2234,302461	-6002,953649	-8642,292023	0,000000	0,000000	1735503358,487413	0,000000
135043,000000	10715,094209	6308,515370	-4164,974391	-6172,478199	-3146,955371	-2238,889039	-6009,131670	-8641,657233	0,000000	0,000000	1735503358,489413	0,000000
135044,000000	10843,607783	6359,231472	-4245,007038	-6186,819077	-3142,189980	-2219,885588	-5975,912511	-8624,334633	0,000000	0,000000	1735503358,491413	0,000000
135045,000000	10862,937570	6417,936087	-4205,520451	-6207,092106	-3199,218214	-2202,911675	-5963,963270	-8622,255921	0,000000	0,000000	1735503358,493413	0,000000
135046,000000	10729,278624	6450,408697	-4041,615129	-6192,009151	-3155,627847	-2204,221487	-5986,247957	-8611,178398	0,000000	0,000000	1735503358,495413	0,000000
135047,000000	10542,096198	6430,122256	-3870,713711	-6167,837977	-3146,973252	-2161,297202	-5956,318974	-8594,633639	0,000000	0,000000	1735503358,497413	0,000000
135048,000000	10431,955755	6405,834854	-3786,617517	-6155,687571	-3130,191565	-2168,999612	-5973,435938	-8596,149087	0,000000	0,000000	1735503358,499413	0,000000
135049,000000	10357,698798	6372,924149	-3746,254742	-6196,752191	-3147,339821	-2178,861201	-5999,971926	-8618,263900	0,000000	0,000000	1735503358,502413	0,000000
135050,000000	10324,157774	6326,133013	-3755,865991	-6179,568172	-3158,886731	-2197,095752	-5984,379351	-8641,478419	0,000000	0,000000	1735503358,503413	0,000000
135051,000000	10398,325324	6285,412610	-3869,931400	-6158,736348	-3134,974837	-2164,600790	-5983,118713	-8648,975194	0,000000	0,000000	1735503358,505413	0,000000
135052,000000	10572,981834	6278,340518	-4050,694406	-6119,066477	-3106,480837	-2153,411508	-5943,904817	-8635,367453	0,000000	0,000000	1735503358,507413	0,000000
135053,000000	10735,689104	6303,302944	-4191,684723	-6218,183041	-3119,270504	-2179,366350	-5986,404419	-8643,454313	0,000000	0,000000	1735503358,509413	0,000000
135054,000000	10862,110555	6346,495450	-4273,290932	-6154,239178	-3131,988645	-2167,287469	-5944,584310	-8627,870679	0,000000	0,000000	1735503358,511413	0,000000
135055,000000	10872,124135	6397,180259	-4234,801233	-6195,268035	-3134,103119	-2199,661732	-5958,920717	-8624,352515	0,000000	0,000000	1735503358,513413	0,000000
135056,000000	10734,030604	6423,881650	-4070,748389	-6184,342504	-3115,577996	-2204,266191	-5981,026590	-8605,487645	0,000000	0,000000	1735503358,515413	0,000000
135057,000000	10528,555512	6399,281323	-3889,323771	-6185,965240	-3181,055188	-2250,713110	-5954,298377	-8613,744378	0,000000	0,000000	1735503358,517413	0,000000
135058,000000	10411,602259	6370,648742	-3799,764812	-6174,114347	-3154,402971	-2257,338166	-5979,904532	-8613,082767	0,000000	0,000000	1735503358,519413	0,000000
135059,000000	10331,609845	6329,391897	-3762,638569	-6144,744158	-3138,761222	-2246,542275	-5989,435315	-8577,543497	0,000000	0,000000	1735503358,522413	0,000000
135060,000000	10298,167169	6278,662384	-3778,928518	-6148,101389	-3122,623265	-2243,690193	-5952,550471	-8578,786254	0,000000	0,000000	1735503358,523413	0,000000
135061,000000	10362,088680	6237,696111	-3883,910179	-6138,262153	-3133,870661	-2217,265964	-5913,318694	-8602,184057	0,000000	0,000000	1735503358,525413	0,000000
135062,000000	10532,560945	6227,606535	-4064,123333	-6162,294745	-3146,101534	-2257,633209	-5985,555053	-8598,755300	0,000000	0,000000	1735503358,527413	0,000000
135063,000000	10693,430901	6243,310869	-4208,149016	-6160,761416	-3140,370548	-2251,218259	-5980,288982	-8572,241664	0,000000	0,000000	1735503358,529413	0,000000
135064,000000	10811,367631	6284,907460	-4285,915196	-6160,967052	-3142,328560	-2223,899961	-5943,770707	-8553,148806	0,000000	0,000000	1735503358,531413	0,000000
135065,000000	10823,366046	6337,232888	-4244,443774	-6207,950413	-3179,405630	-2236,743271	-5948,017538	-8542,867005	0,000000	0,000000	1735503358,533413	0,000000
135066,000000	10687,378049	6373,688579	-4070,989788	-6197,713315	-3146,758676	-2232,514322	-5950,333178	-8564,879000	0,000000	0,000000	1735503358,535413	0,000000
135067,000000	10488,398373	6351,627409	-3896,534443	-6158,646941	-3134,974837	-2253,600955	-6012,363732	-8608,853817	0,000000	0,000000	1735503358,537413	0,000000
135068,000000	10369,598866	6321,917474	-3807,945549	-6190,395355	-3168,019652	-2187,654376	-5978,934467	-8608,576655	0,000000	0,000000	1735503358,539413	0,000000
135069,000000	10298,989713	6300,956011	-3758,659959	-6190,127134	-3168,542683	-2203,872800	-5959,412456	-8627,656102	0,000000	0,000000	1735503358,542413	0,000000
135070,000000	10274,679959	6260,991096	-3774,230182	-6166,224182	-3117,688000	-2190,296352	-5962,765217	-8626,449108	0,000000	0,000000	1735503358,543413	0,000000
135071,000000	10356,062651	6228,724122	-3887,553513	-6122,834980	-3092,367947	-2212,804556	-5943,109095	-8626,355231	0,000000	0,000000	1735503358,545413	0,000000
135072,000000	10520,598292	6218,522787	-4062,590003	-6152,920425	-3115,828335	-2240,386605	-5930,542946	-8620,078862	0,000000	0,000000	1735503358,547413	0,000000
135073,000000	10684,239864	6247,191131	-4196,521640	-6164,900959	-3093,521297	-2243,971825	-5885,866284	-8606,873453	0,000000	0,000000	1735503358,549413	0,000000
135074,000000	10812,065005	6292,431056	-4279,763997	-6152,746081	-3120,383620	-2221,123874	-5948,075652	-8613,878489	0,000000	0,000000	1735503358,551413	0,000000
135075,000000	10827,894509	6347,094476	-4239,602387	-6165,379286	-3106,963634	-2201,128006	-5949,707329	-8590,798080	0,000000	0,000000	1735503358,553413	0,000000
135076,000000	10692,733526	6372,714043	-4079,125822	-6176,586449	-3139,159083	-2260,114253	-5932,058394	-8591,938019	0,000000	0,000000	1735503358,555413	0,000000
135077,000000	10497,857630	6356,321275	-3900,812566	-6167,940795	-3142,176569	-2237,275243	-5940,042436	-8613,172174	0,000000	0,000000	1735503358,557413	0,000000
135078,000000	10376,268625	6321,662664	-3813,426197	-6162,531674	-3150,522709	-2240,981162	-5936,685205	-8632,622659	0,000000	0,000000	1735503358,559413	0,000000
135079,000000	10303,241014	6292,149425	-3771,699965	-6156,720221	-3148,560226	-2230,668068	-5917,270482	-8605,693281	0,000000	0,000000	1735503358,562413	0,000000
135080,000000	10274,702311	6253,887713	-3779,934347	-6177,051365	-3114,330769	-2227,342129	-5911,928415	-8633,328974	0,000000	0,000000	1735503358,563413	0,000000
135081,000000	10349,906981	6224,580109	-3883,709013	-6128,208339	-3108,282387	-2219,648659	-5935,701728	-8614,008129	0,000000	0,000000	1735503358,565413	0,000000
135082,000000	10513,678193	6217,329204	-4056,268930	-6115,320325	-3151,278198	-2240,274847	-5934,597552	-8629,167080	0,000000	0,000000	1735503358,567413	0,000000
135083,000000	10686,653852	6247,539818	-4198,725522	-6156,054139	-3127,433360	-2245,777845	-5899,201334	-8604,995906	0,000000	0,000000	1735503358,569413	0,000000
135084,000000	10823,746026	6292,927265	-4289,084673	-6183,180213	-3158,546984	-2245,299518	-5909,568071	-8603,230119	0,000000	0,000000	1735503358,571413	0,000000
135085,000000	10838,605464	6345,167756	-4253,827035	-6168,602407	-3160,098195	-2223,135531	-5944,705009	-8565,276861	0,000000	0,000000	1735503358,573413	0,000000
135086,000000	10692,760348	6368,538737	-4084,289074	-6195,133924	-3172,150254	-2205,017209	-5973,596871	-8586,542308	0,000000	0,000000	1735503358,575413	0,000000
135087,000000	10498,599708	6353,728473	-3902,873397	-6193,940341	-3140,553832	-2218,124270	-6012,359262	-8598,987758	0,000000	0,000000	1735503358,577413	0,000000
135088,000000	10381,436348	6326,624751	-3814,025223	-6179,773808	-3131,599724	-2235,098183	-5995,725095	-8588,647842	0,000000	0,000000	1735503358,579413	0,000000
135089,000000	10303,522646	6294,590235	-3767,886758	-6131,485105	-3099,279106	-2242,474258	-5934,025347	-8596,193790	0,000000	0,000000	1735503358,582413	0,000000
135090,000000	10277,804732	6251,710653	-3783,684969	-6156,340241	-3115,502000	-2225,080132	-5946,891010	-8614,231646	0,000000	0,000000	1735503358,583413	0,000000
135091,000000	10358,802974	6210,458279	-3907,164931	-6163,161993	-3061,477840	-2238,294482	-5954,977870	-8640,258014	0,000000	0,000000	1735503358,585413	0,000000
135092,000000	10531,805456	6198,710203	-4094,016552	-6186,081469	-3072,153032	-2247,355878	-5961,222947	-8636,248112	0,000000	0,000000	1735503358,587413	0,000000
135093,000000	10693,216324	6220,306456	-4230,237007	-6169,603765	-3076,198697	-2249,296010	-5971,513689	-8621,446788	0,000000	0,000000	1735503358,589413	0,000000
135094,000000	10854,680836	6286,230683	-4324,360192	-6100,112200	-3082,765639	-2243,390679	-5958,335102	-8650,209010	0,000000	0,000000	1735503358,591413	0,000000
135095,000000	10914,985836	6365,463138	-4309,782386	-6135,468185	-3115,926683	-2246,524394	-5909,018219	-8617,115021	0,000000	0,000000	1735503358,593413	0,000000
135096,000000	10823,325813	6431,691349	-4149,113595	-6168,620288	-3088,662028	-2217,552066	-5942,487717	-8608,818054	0,000000	0,000000	1735503358,595413	0,000000
135097,000000	10675,773025	6458,741426	-3975,579143	-6172,049046	-3106,909990	-2275,407314	-5999,703705	-8617,159724	0,000000	0,000000	1735503358,597413	0,000000
135098,000000	10603,424907	6506,395340	-3854,092956	-6181,780994	-3104,589880	-2265,125513	-5963,596702	-8623,798192	0,000000	0,000000	1735503358,599413	0,000000
135099,000000	10560,885072	6541,559100	-3777,426481	-6151,002645	-3088,326752	-2251,213789	-5946,859717	-8638,684452	0,000000	0,000000	1735503358,602413	0,000000
135100,000000	10573,397577	6602,525711	-3732,244670	-6172,446907	-3089,645505	-2255,576849	-5996,610224	-8628,232777	0,000000	0,000000	1735503358,603413	0,000000
135101,000000	10676,765442	6672,808528	-3765,486181	-6168,235838	-3072,895110	-2252,952754	-5955,165625	-8621,357381	0,000000	0,000000	1735503358,605413	0,000000
135102,000000	10888,771713	6790,731847	-3859,913349	-6140,407920	-3099,560738	-2240,395546	-5979,560316	-8625,456691	0,000000	0,000000	1735503358,607413	0,000000
135103,000000	11080,925167	6989,438832	-3853,927553	-6138,606369	-3116,181493	-2240,163088	-5943,632126	-8647,093177	0,000000	0,000000	1735503358,609413	0,000000
135104,000000	11232,554913	7202,352583	-3793,331981	-6166,175008	-3091,545403	-2232,965827	-5946,242809	-8610,963821	0,000000	0,000000	1735503358,611413	0,000000
