522510,000000	2399,990335	1664,673910	-737,160444	3,417954	8,214265	0,614673	-31,627715	-82,459301	0,000000	0,000000	1735502895,105087	0,000000
522511,000000	2397,783101	1661,591232	-738,091767	3,296882	8,242205	0,614673	-31,562522	-82,403421	0,000000	0,000000	1735502895,107087	0,000000
522512,000000	2396,386117	1659,207046	-739,144161	3,324822	8,381903	0,586733	-31,208619	-82,859769	0,000000	0,000000	1735502895,109087	0,000000
522513,000000	2396,665514	1659,058034	-739,423558	4,284084	8,940697	0,875443	-31,553209	-81,593171	0,000000	0,000000	1735502895,111087	0,000000
522514,000000	2397,857606	1660,473645	-739,181414	4,023314	9,480864	1,247972	-31,720847	-80,065802	0,000000	0,000000	1735502895,113087	0,000000
522515,000000	2399,999648	1663,472503	-738,287345	4,861504	9,769574	1,573935	-31,571835	-81,751496	0,000000	0,000000	1735502895,115087	0,000000
522516,000000	2402,616665	1667,169854	-737,262890	3,622845	9,126961	1,387671	-31,553209	-82,189217	0,000000	0,000000	1735502895,117087	0,000000
522517,000000	2404,050902	1669,293270	-736,545771	2,533197	8,502975	1,061708	-31,031668	-81,928447	0,000000	0,000000	1735502895,119087	0,000000
522518,000000	2403,594553	1668,874174	-736,610964	3,045425	8,661300	1,052395	-31,059608	-80,773607	0,000000	0,000000	1735502895,121087	0,000000
522519,000000	2403,054386	1668,222249	-736,704096	3,809109	8,540228	1,015142	-31,413510	-82,645565	0,000000	0,000000	1735502895,123087	0,000000
522520,000000	2402,206883	1667,058095	-737,057999	3,715977	8,307397	0,707805	-31,646341	-79,898164	0,000000	0,000000	1735502895,125087	0,000000
522521,000000	2399,822697	1663,845032	-737,896189	3,362074	8,279458	0,558794	-31,953678	-80,326572	0,000000	0,000000	1735502895,127087	0,000000
522522,000000	2398,230135	1660,827547	-739,237294	3,483146	8,242205	0,549480	-31,236559	-80,177560	0,000000	0,000000	1735502895,129087	0,000000
522523,000000	2398,332581	1660,063863	-740,233809	3,688037	8,447096	0,828877	-31,553209	-82,310289	0,000000	0,000000	1735502895,130087	0,000000
522524,000000	2399,571240	1661,367714	-740,131363	3,864989	8,502975	0,819564	-31,348318	-80,997124	0,000000	0,000000	1735502895,132087	0,000000
522525,000000	2402,085811	1664,413139	-739,581883	3,930181	8,670613	0,987202	-31,627715	-81,742182	0,000000	0,000000	1735502895,134087	0,000000
522526,000000	2404,861152	1668,184996	-738,538802	4,032627	8,651987	1,229346	-31,376258	-80,978498	0,000000	0,000000	1735502895,136087	0,000000
522527,000000	2407,273278	1670,923084	-738,101080	3,948808	8,624047	1,108274	-31,422824	-82,198530	0,000000	0,000000	1735502895,138087	0,000000
522528,000000	2407,627180	1671,081409	-738,175586	3,669411	8,679926	0,903383	-31,208619	-83,083287	0,000000	0,000000	1735502895,140087	0,000000
522529,000000	2407,021821	1670,345664	-738,473609	3,641471	8,568168	1,015142	-31,050295	-81,453472	0,000000	0,000000	1735502895,142087	0,000000
522530,000000	2406,053245	1668,762416	-739,274547	3,380701	8,409843	0,623986	-31,320378	-81,071630	0,000000	0,000000	1735502895,144087	0,000000
522531,000000	2403,995022	1665,791497	-740,056857	3,464520	7,608905	0,428408	-30,966476	-80,689788	0,000000	0,000000	1735502895,146087	0,000000
522532,000000	2402,151003	1662,625000	-741,137192	1,778826	7,674098	0,456348	-31,162053	-80,130994	0,000000	0,000000	1735502895,148087	0,000000
522533,000000	2402,123064	1661,721617	-742,217526	3,576279	8,214265	0,679865	-31,711534	-80,773607	0,000000	0,000000	1735502895,150087	0,000000
522534,000000	2403,194085	1662,662253	-742,552802	3,762543	8,428469	0,987202	-31,180680	-82,142651	0,000000	0,000000	1735502895,152087	0,000000
522535,000000	2405,270934	1665,214077	-741,956756	3,837049	8,717179	1,071021	-31,264499	-80,866739	0,000000	0,000000	1735502895,154087	0,000000
522536,000000	2408,297732	1669,134945	-741,025433	4,163012	8,866191	1,238659	-31,180680	-80,475584	0,000000	0,000000	1735502895,156087	0,000000
522537,000000	2410,840243	1672,627404	-740,280375	4,023314	8,847564	1,369044	-31,078234	-80,233440	0,000000	0,000000	1735502895,158087	0,000000
522538,000000	2411,706373	1673,502848	-740,094110	3,762543	8,828938	0,996515	-30,957162	-80,894679	0,000000	0,000000	1735502895,160087	0,000000
522539,000000	2411,725000	1672,999933	-740,615651	3,650784	8,717179	0,884756	-31,236559	-80,773607	0,000000	0,000000	1735502895,162087	0,000000
522540,000000	2411,194146	1672,022045	-741,165131	3,585592	8,549541	0,530854	-31,590462	-81,695616	0,000000	0,000000	1735502895,164087	0,000000
522541,000000	2409,731969	1669,675112	-741,994008	3,241003	8,465722	0,521541	-31,720847	-82,673505	0,000000	0,000000	1735502895,166087	0,000000
522542,000000	2407,729626	1666,592434	-742,971897	3,036112	8,326024	0,484288	-31,618401	-81,406906	0,000000	0,000000	1735502895,168087	0,000000
522543,000000	2407,012507	1664,664596	-744,173303	3,241003	8,409843	0,493601	-31,189993	-81,500039	0,000000	0,000000	1735502895,170087	0,000000
522544,000000	2407,906577	1665,391028	-744,406134	3,352761	8,558854	0,791624	-31,339005	-80,158934	0,000000	0,000000	1735502895,171087	0,000000
522545,000000	2409,424633	1667,225733	-744,126737	3,650784	8,651987	1,005828	-31,488016	-81,304461	0,000000	0,000000	1735502895,173087	0,000000
522546,000000	2412,442118	1670,997590	-743,400306	3,827736	8,912757	1,098961	-31,553209	-81,164762	0,000000	0,000000	1735502895,175087	0,000000
522547,000000	2415,226772	1674,722880	-742,375851	3,837049	9,043142	1,052395	-31,068921	-78,929588	0,000000	0,000000	1735502895,177087	0,000000
522548,000000	2416,102216	1676,203683	-741,835684	3,566965	8,707866	0,931323	-30,975789	-78,631565	0,000000	0,000000	1735502895,179087	0,000000
522549,000000	2415,748313	1675,710082	-741,882250	3,427267	8,707866	0,884756	-31,488016	-79,963356	0,000000	0,000000	1735502895,181087	0,000000
522550,000000	2415,189520	1675,011590	-742,059201	3,613532	8,698553	0,735745	-31,376258	-78,603625	0,000000	0,000000	1735502895,183087	0,000000
522551,000000	2413,606271	1672,944054	-742,496923	3,511086	8,549541	0,633299	-31,851232	-81,639737	0,000000	0,000000	1735502895,185087	0,000000
522552,000000	2411,911264	1669,954509	-743,707642	3,306195	8,409843	0,465661	-31,795353	-80,801547	0,000000	0,000000	1735502895,187087	0,000000
522553,000000	2410,737798	1667,644829	-745,058060	3,278255	8,475035	0,549480	-32,149255	-79,320744	0,000000	0,000000	1735502895,189087	0,000000
522554,000000	2411,091700	1667,579636	-745,486468	3,427267	8,568168	0,577420	-31,990930	-80,056489	0,000000	0,000000	1735502895,191087	0,000000
522555,000000	2412,386239	1668,939367	-745,356083	3,511086	8,596107	0,707805	-32,037497	-81,071630	0,000000	0,000000	1735502895,193087	0,000000
522556,000000	2414,751798	1672,133803	-744,611025	3,855675	8,940697	0,903383	-31,525269	-80,186874	0,000000	0,000000	1735502895,195087	0,000000
522557,000000	2417,275682	1675,821841	-743,446872	4,041940	8,810312	1,136214	-31,115487	-81,276521	0,000000	0,000000	1735502895,197087	0,000000
522558,000000	2417,843789	1677,731052	-742,012635	3,837049	8,763745	0,894070	-31,506643	-80,345199	0,000000	0,000000	1735502895,199087	0,000000
522559,000000	2417,489886	1677,572727	-741,854310	3,734604	8,577481	0,800937	-31,553209	-80,363825	0,000000	0,000000	1735502895,201087	0,000000
522560,000000	2416,595817	1676,641405	-741,844997	3,855675	8,661300	0,772998	-31,534582	-79,581514	0,000000	0,000000	1735502895,203087	0,000000
522561,000000	2414,761111	1674,508676	-742,021948	3,380701	8,437783	0,474975	-31,841919	-81,816688	0,000000	0,000000	1735502895,205087	0,000000
522562,000000	2411,985770	1671,509817	-742,385164	3,324822	8,204952	0,363216	-31,879172	-81,844628	0,000000	0,000000	1735502895,207087	0,000000
522563,000000	2409,629524	1668,743789	-742,767006	3,874302	8,232892	0,335276	-31,972304	-83,260238	0,000000	0,000000	1735502895,209087	0,000000
522564,000000	2408,893779	1667,523757	-743,316486	3,241003	8,260831	0,465661	-31,646341	-81,099570	0,000000	0,000000	1735502895,211087	0,000000
522565,000000	2409,713343	1668,874174	-742,748380	2,300367	8,661300	0,745058	-31,804666	-79,963356	0,000000	0,000000	1735502895,212087	0,000000
522566,000000	2411,343157	1671,658829	-741,509721	3,902242	8,847564	1,024455	-31,497329	-80,876052	0,000000	0,000000	1735502895,214087	0,000000
522567,000000	2413,401380	1675,132662	-740,103424	4,200265	8,884817	1,126900	-31,301752	-80,652535	0,000000	0,000000	1735502895,216087	0,000000
522568,000000	2414,090559	1677,433029	-738,641247	3,818423	8,773059	0,838190	-31,422824	-81,546605	0,000000	0,000000	1735502895,218087	0,000000
522569,000000	2412,516624	1676,632091	-737,886876	3,771856	8,605421	0,838190	-31,534582	-81,174076	0,000000	0,000000	1735502895,220087	0,000000
522570,000000	2410,998568	1675,356179	-737,626106	3,753230	8,605421	0,763685	-31,543896	-79,246238	0,000000	0,000000	1735502895,222087	0,000000
522571,000000	2408,875152	1673,251390	-737,430528	3,436580	8,335337	0,577420	-31,590462	-80,037862	0,000000	0,000000	1735502895,224087	0,000000
522572,000000	2405,680716	1669,777557	-737,803057	3,250316	8,316711	0,484288	-31,758100	-80,652535	0,000000	0,000000	1735502895,226087	0,000000
522573,000000	2403,119579	1666,303724	-738,678500	3,557652	8,288771	0,335276	-32,018870	-82,356855	0,000000	0,000000	1735502895,228087	0,000000
522574,000000	2401,983365	1664,441079	-739,330426	2,784654	8,428469	0,521541	-31,804666	-80,484897	0,000000	0,000000	1735502895,230087	0,000000
522575,000000	2401,806414	1664,999872	-738,818198	3,511086	8,475035	0,642613	-31,739473	-80,540776	0,000000	0,000000	1735502895,232087	0,000000
522576,000000	2402,635291	1666,629687	-737,886876	4,088506	9,713694	1,117587	-31,823292	-80,661848	0,000000	0,000000	1735502895,234087	0,000000
522577,000000	2404,665574	1670,196652	-736,331567	3,632158	8,614734	0,968575	-31,013042	-82,040206	0,000000	0,000000	1735502895,236087	0,000000
522578,000000	2406,090498	1672,971994	-734,897330	3,622845	8,251518	0,847504	-30,789524	-82,151964	0,000000	0,000000	1735502895,238087	0,000000
522579,000000	2405,419946	1672,934741	-734,161586	2,244487	7,534400	0,707805	-31,022355	-81,900507	0,000000	0,000000	1735502895,240087	0,000000
522580,000000	2403,911203	1672,059298	-733,742490	3,287569	8,624047	0,633299	-31,022355	-83,791092	0,000000	0,000000	1735502895,242087	0,000000
522581,000000	2402,411774	1670,187339	-734,021887	3,641471	8,624047	0,670552	-31,059608	-81,947073	0,000000	0,000000	1735502895,244087	0,000000
522582,000000	2399,850637	1667,253673	-734,468922	3,334135	8,316711	0,381842	-31,720847	-80,848113	0,000000	0,000000	1735502895,246087	0,000000
522583,000000	2397,084609	1663,723961	-735,195354	3,324822	8,316711	0,279397	-31,720847	-81,490725	0,000000	0,000000	1735502895,248087	0,000000
522584,000000	2395,408228	1661,321148	-735,940412	3,483146	8,335337	0,661239	-31,581149	-81,276521	0,000000	0,000000	1735502895,250087	0,000000
522585,000000	2395,361662	1661,228016	-735,968351	3,706664	8,475035	0,735745	-31,096861	-81,434846	0,000000	0,000000	1735502895,252087	0,000000
522586,000000	2396,190539	1662,522554	-735,474750	3,986061	8,689240	1,015142	-31,506643	-80,391765	0,000000	0,000000	1735502895,254087	0,000000
522587,000000	2398,388460	1665,744931	-734,347850	3,930181	8,800998	1,098961	-31,394884	-78,948215	0,000000	0,000000	1735502895,255087	0,000000
522588,000000	2400,167286	1668,836921	-733,081251	4,209578	8,875504	1,061708	-31,245872	-79,451129	0,000000	0,000000	1735502895,257087	0,000000
522589,000000	2400,455996	1669,796184	-732,373446	3,827736	8,782372	0,772998	-31,143427	-80,969185	0,000000	0,000000	1735502895,259087	0,000000
522590,000000	2399,878576	1668,892801	-732,829794	3,725290	8,596107	0,614673	-31,199306	-81,164762	0,000000	0,000000	1735502895,261087	0,000000
522591,000000	2398,919314	1667,719334	-733,165070	3,790483	8,568168	0,586733	-31,385571	-81,192702	0,000000	0,000000	1735502895,263087	0,000000
522592,000000	2396,777272	1665,130258	-733,546913	3,650784	8,502975	0,372529	-31,674281	-81,192702	0,000000	0,000000	1735502895,265087	0,000000
522593,000000	2394,448966	1661,824062	-734,431669	3,566965	8,409843	0,270084	-31,627715	-82,105398	0,000000	0,000000	1735502895,267087	0,000000
522594,000000	2393,005416	1659,402624	-735,474750	3,576279	8,400530	0,568107	-31,637028	-81,323087	0,000000	0,000000	1735502895,269087	0,000000
522595,000000	2393,387258	1659,290865	-736,024231	3,753230	8,586794	0,735745	-31,162053	-80,075115	0,000000	0,000000	1735502895,271087	0,000000
522596,000000	2394,570038	1660,659909	-735,856593	3,892928	8,624047	0,903383	-31,404197	-81,118196	0,000000	0,000000	1735502895,273087	0,000000
522597,000000	2396,795899	1663,705334	-734,999776	3,976747	8,940697	1,015142	-31,376258	-82,207844	0,000000	0,000000	1735502895,275087	0,000000
522598,000000	2399,012446	1667,216420	-733,574852	4,125759	8,922070	1,247972	-31,040981	-80,242753	0,000000	0,000000	1735502895,277087	0,000000
522599,000000	2399,757504	1669,088379	-732,662156	4,069880	8,856878	0,968575	-31,068921	-81,462786	0,000000	0,000000	1735502895,279087	0,000000
522600,000000	2398,854122	1668,101177	-732,615590	3,837049	8,698553	0,949949	-31,255186	-84,415078	0,000000	0,000000	1735502895,281087	0,000000
522601,000000	2397,904173	1666,983590	-732,811168	3,883615	8,605421	0,894070	-31,217933	-80,335885	0,000000	0,000000	1735502895,283087	0,000000
522602,000000	2396,414056	1665,074378	-733,369961	3,706664	8,260831	0,689179	-31,534582	-81,053004	0,000000	0,000000	1735502895,285087	0,000000
522603,000000	2394,262701	1661,852002	-734,329224	3,399327	8,260831	0,419095	-31,245872	-82,645565	0,000000	0,000000	1735502895,287087	0,000000
522604,000000	2392,483875	1659,234986	-735,148787	3,557652	8,307397	0,605360	-31,618401	-81,658363	0,000000	0,000000	1735502895,289087	0,000000
522605,000000	2392,549068	1658,434048	-735,968351	4,284084	8,866191	0,772998	-31,655654	-82,366168	0,000000	0,000000	1735502895,291087	0,000000
522606,000000	2394,085750	1659,924164	-736,024231	3,827736	8,773059	0,884756	-31,264499	-82,692131	0,000000	0,000000	1735502895,293087	0,000000
522607,000000	2395,911142	1662,615687	-735,176727	3,892928	8,651987	0,977889	-30,864030	-82,710758	0,000000	0,000000	1735502895,295087	0,000000
522608,000000	2398,341894	1666,229218	-733,984634	4,107133	8,856878	1,080334	-30,910596	-80,745667	0,000000	0,000000	1735502895,296087	0,000000
522609,000000	2399,738878	1668,697223	-732,950866	3,846362	8,819625	0,949949	-30,873343	-80,745667	0,000000	0,000000	1735502895,298087	0,000000
522610,000000	2398,937941	1668,585464	-732,345507	3,706664	8,633360	0,689179	-31,143427	-82,300976	0,000000	0,000000	1735502895,300087	0,000000
522611,000000	2398,155630	1667,803153	-732,289627	3,771856	8,586794	0,512227	-31,143427	-81,826001	0,000000	0,000000	1735502895,302087	0,000000
522612,000000	2396,805212	1666,136086	-732,578337	3,287569	8,288771	0,530854	-31,301752	-81,006438	0,000000	0,000000	1735502895,304087	0,000000
522613,000000	2394,421026	1662,978902	-733,351335	3,520399	8,009374	0,419095	-31,460077	-79,963356	0,000000	0,000000	1735502895,306087	0,000000
522614,000000	2392,409369	1659,924164	-734,338537	3,380701	8,204952	0,456348	-31,488016	-81,444159	0,000000	0,000000	1735502895,308087	0,000000
522615,000000	2392,083406	1658,396795	-735,307112	2,402812	7,431954	0,372529	-30,919909	-81,257895	0,000000	0,000000	1735502895,310087	0,000000
522616,000000	2392,670140	1659,113914	-735,502690	3,613532	8,260831	0,689179	-31,227246	-81,490725	0,000000	0,000000	1735502895,312087	0,000000
522617,000000	2394,188195	1661,097631	-734,869391	2,784654	8,177012	1,015142	-31,292439	-80,224127	0,000000	0,000000	1735502895,314087	0,000000
522618,000000	2396,665514	1664,822921	-733,584166	4,414469	8,950010	1,164153	-30,891970	-82,775950	0,000000	0,000000	1735502895,316087	0,000000
522619,000000	2398,332581	1668,035984	-732,149929	4,004687	8,763745	1,313165	-31,301752	-81,984326	0,000000	0,000000	1735502895,318087	0,000000
522620,000000	2398,695797	1668,194309	-732,233748	2,859160	8,372590	0,968575	-31,283125	-81,062317	0,000000	0,000000	1735502895,320087	0,000000
522621,000000	2398,286015	1667,346805	-732,531771	2,896413	8,353963	0,940636	-31,543896	-80,578029	0,000000	0,000000	1735502895,322087	0,000000
522622,000000	2397,168428	1666,266471	-732,792541	3,548339	8,456409	0,838190	-31,245872	-82,999468	0,000000	0,000000	1735502895,324087	0,000000
522623,000000	2395,119518	1663,640141	-733,397901	3,622845	8,530915	0,577420	-31,180680	-82,058832	0,000000	0,000000	1735502895,326087	0,000000
522624,000000	2392,893657	1660,902053	-733,938068	3,464520	8,335337	0,474975	-31,208619	-82,291663	0,000000	0,000000	1735502895,328087	0,000000
522625,000000	2392,111346	1658,862457	-735,167414	3,594905	8,326024	0,717118	-31,208619	-81,704929	0,000000	0,000000	1735502895,330087	0,000000
522626,000000	2392,781898	1659,095287	-735,539943	3,697351	8,437783	0,856817	-31,385571	-79,991296	0,000000	0,000000	1735502895,332087	0,000000
522627,000000	2394,169569	1660,753042	-735,279173	4,014000	8,679926	1,015142	-30,798838	-82,533807	0,000000	0,000000	1735502895,334087	0,000000
522628,000000	2396,581694	1664,320007	-734,217465	4,759058	9,359792	1,350418	-31,180680	-82,217157	0,000000	0,000000	1735502895,336087	0,000000
522629,000000	2398,500219	1667,533070	-732,820481	4,637986	9,173527	1,341105	-31,106174	-82,263723	0,000000	0,000000	1735502895,337087	0,000000
522630,000000	2398,947254	1668,725163	-732,112676	3,753230	8,596107	1,005828	-31,227246	-83,185732	0,000000	0,000000	1735502895,339087	0,000000
522631,000000	2398,174256	1667,831093	-732,289627	3,688037	8,456409	0,987202	-31,292439	-79,981983	0,000000	0,000000	1735502895,341087	0,000000
522632,000000	2397,522330	1666,685566	-732,708722	3,678724	8,465722	0,745058	-30,975789	-81,500039	0,000000	0,000000	1735502895,343087	0,000000
522633,000000	2395,659685	1664,394513	-733,081251	3,594905	8,409843	0,484288	-31,301752	-83,064660	0,000000	0,000000	1735502895,345087	0,000000
522634,000000	2393,359318	1661,209390	-733,928755	3,408641	8,326024	0,521541	-31,888485	-81,453472	0,000000	0,000000	1735502895,347087	0,000000
522635,000000	2392,129973	1658,815891	-735,139474	3,501773	8,279458	0,549480	-31,702220	-82,254410	0,000000	0,000000	1735502895,349087	0,000000
522636,000000	2392,530441	1658,694819	-735,670328	3,874302	8,493662	0,847504	-31,422824	-80,745667	0,000000	0,000000	1735502895,351087	0,000000
522637,000000	2393,778414	1660,184935	-735,484064	3,920868	8,549541	1,024455	-31,543896	-79,255551	0,000000	0,000000	1735502895,353087	0,000000
522638,000000	2396,097407	1663,286239	-734,664500	4,032627	8,782372	1,071021	-31,199306	-81,695616	0,000000	0,000000	1735502895,355087	0,000000
522639,000000	2398,444340	1666,992903	-733,295456	4,051253	8,903444	1,126900	-30,947849	-81,267208	0,000000	0,000000	1735502895,357087	0,000000
522640,000000	2399,189398	1668,697223	-732,373446	3,902242	8,745119	0,922009	-31,264499	-80,587342	0,000000	0,000000	1735502895,359087	0,000000
522641,000000	2398,760989	1668,101177	-732,606277	3,892928	8,549541	0,791624	-31,748787	-82,319602	0,000000	0,000000	1735502895,361087	0,000000
522642,000000	2397,997305	1667,104661	-732,755288	3,706664	8,512288	0,828877	-31,115487	-83,213672	0,000000	0,000000	1735502895,363087	0,000000
522643,000000	2396,665514	1665,251330	-733,248889	3,529713	8,381903	0,633299	-31,581149	-81,742182	0,000000	0,000000	1735502895,365087	0,000000
522644,000000	2394,132316	1662,056893	-733,975321	3,427267	8,353963	0,465661	-32,028183	-80,484897	0,000000	0,000000	1735502895,367087	0,000000
522645,000000	2392,577007	1659,467816	-735,064968	3,399327	8,353963	0,465661	-31,935051	-82,142651	0,000000	0,000000	1735502895,369087	0,000000
522646,000000	2392,549068	1658,685505	-735,782087	3,501773	8,447096	0,689179	-31,581149	-83,232298	0,000000	0,000000	1735502895,371087	0,000000
522647,000000	2393,610775	1659,793779	-735,726207	3,743917	8,642673	0,847504	-31,478703	-80,233440	0,000000	0,000000	1735502895,373087	0,000000
522648,000000	2395,771444	1662,587747	-735,064968	3,790483	8,800998	1,108274	-30,947849	-80,317259	0,000000	0,000000	1735502895,375087	0,000000
522649,000000	2398,304641	1666,462049	-733,844936	3,809109	8,847564	1,145527	-30,947849	-80,727041	0,000000	0,000000	1735502895,377087	0,000000
522650,000000	2399,729565	1668,613404	-732,978806	3,464520	8,996576	0,949949	-31,348318	-82,645565	0,000000	0,000000	1735502895,379087	0,000000
522651,000000	2399,226651	1668,240875	-732,932240	3,241003	8,651987	0,800937	-31,292439	-81,323087	0,000000	0,000000	1735502895,380087	0,000000
522652,000000	2398,593351	1667,225733	-733,239576	3,436580	8,409843	0,707805	-31,236559	-81,900507	0,000000	0,000000	1735502895,382087	0,000000
522653,000000	2397,615463	1665,446907	-733,854249	2,747402	7,841736	0,549480	-31,078234	-80,792233	0,000000	0,000000	1735502895,384087	0,000000
522654,000000	2395,045012	1662,587747	-734,264031	2,933666	8,214265	0,447035	-31,646341	-81,453472	0,000000	0,000000	1735502895,386087	0,000000
522655,000000	2393,098548	1659,505069	-735,362992	2,672896	9,043142	0,726432	-31,962991	-79,972669	0,000000	0,000000	1735502895,388087	0,000000
522656,000000	2392,884344	1658,415422	-736,378133	3,064051	8,894131	0,875443	-31,469390	-79,879537	0,000000	0,000000	1735502895,390087	0,000000
522657,000000	2393,769100	1659,393311	-736,312941	3,771856	8,596107	0,931323	-31,348318	-81,416219	0,000000	0,000000	1735502895,392087	0,000000
522658,000000	2395,510674	1661,600545	-735,744834	3,809109	8,717179	1,024455	-30,910596	-82,859769	0,000000	0,000000	1735502895,394087	0,000000
522659,000000	2397,894859	1665,418968	-734,403729	4,032627	8,875504	0,968575	-30,761585	-80,289319	0,000000	0,000000	1735502895,396087	0,000000
522660,000000	2399,515361	1668,576151	-732,829794	3,911555	8,940697	1,247972	-31,394884	-78,519806	0,000000	0,000000	1735502895,398087	0,000000
522661,000000	2399,459481	1668,697223	-732,792541	3,743917	8,577481	1,024455	-31,115487	-81,891194	0,000000	0,000000	1735502895,400087	0,000000
522662,000000	2398,882061	1667,877659	-732,922927	3,753230	8,614734	0,931323	-31,283125	-81,891194	0,000000	0,000000	1735502895,402087	0,000000
522663,000000	2397,662029	1666,331664	-733,165070	3,688037	8,465722	0,735745	-31,637028	-82,217157	0,000000	0,000000	1735502895,404087	0,000000
522664,000000	2395,883203	1663,509756	-734,282658	3,650784	8,437783	0,484288	-31,935051	-82,664192	0,000000	0,000000	1735502895,406087	0,000000
522665,000000	2394,290641	1660,678536	-735,521317	3,585592	8,419156	0,465661	-31,916425	-83,260238	0,000000	0,000000	1735502895,408087	0,000000
522666,000000	2393,294126	1658,750698	-736,387447	3,315508	8,363277	0,698492	-32,009557	-81,816688	0,000000	0,000000	1735502895,410087	0,000000
522667,000000	2393,936738	1659,346744	-736,536458	3,874302	8,493662	0,819564	-31,320378	-83,269551	0,000000	0,000000	1735502895,412087	0,000000
522668,000000	2395,212650	1661,209390	-735,959038	3,874302	8,745119	0,884756	-30,742958	-83,511695	0,000000	0,000000	1735502895,414087	0,000000
522669,000000	2397,634089	1664,878801	-734,720379	3,995374	8,940697	1,154840	-30,575320	-80,680475	0,000000	0,000000	1735502895,416087	0,000000
522670,000000	2399,487421	1668,063924	-733,360648	3,864989	8,912757	1,052395	-30,808151	-81,751496	0,000000	0,000000	1735502895,418087	0,000000
522671,000000	2399,440855	1668,566838	-732,811168	3,688037	8,717179	0,866130	-31,124800	-81,630424	0,000000	0,000000	1735502895,420087	0,000000
522672,000000	2398,649231	1667,579636	-732,997432	3,669411	8,726493	0,800937	-31,907111	-80,913305	0,000000	0,000000	1735502895,421087	0,000000
522673,000000	2397,708595	1666,489989	-733,165070	3,566965	8,577481	0,568107	-31,311065	-79,562888	0,000000	0,000000	1735502895,423087	0,000000
522674,000000	2395,687625	1663,994044	-733,667985	3,315508	8,400530	0,447035	-31,469390	-81,742182	0,000000	0,000000	1735502895,425087	0,000000
522675,000000	2393,228933	1660,780981	-734,357163	3,371388	8,437783	0,484288	-31,823292	-82,785264	0,000000	0,000000	1735502895,427087	0,000000
522676,000000	2391,934395	1658,452675	-735,465437	3,492460	8,307397	0,502914	-31,692907	-82,906336	0,000000	0,000000	1735502895,429087	0,000000
522677,000000	2392,204478	1658,415422	-735,744834	3,604218	8,391216	0,689179	-31,497329	-80,494210	0,000000	0,000000	1735502895,431087	0,000000
522678,000000	2393,666655	1660,101116	-735,456124	3,706664	8,642673	0,977889	-31,394884	-81,406906	0,000000	0,000000	1735502895,433087	0,000000
522679,000000	2396,078780	1663,267612	-734,599307	3,976747	8,698553	1,257285	-31,292439	-81,295148	0,000000	0,000000	1735502895,435087	0,000000
522680,000000	2398,323268	1666,843891	-733,286142	3,995374	8,614734	1,182780	-31,245872	-81,583858	0,000000	0,000000	1735502895,437087	0,000000
522681,000000	2399,189398	1668,520272	-732,494518	3,734604	8,577481	0,903383	-31,413510	-79,656020	0,000000	0,000000	1735502895,439087	0,000000
522682,000000	2398,723736	1668,091863	-732,466578	3,650784	8,493662	0,894070	-31,441450	-80,214813	0,000000	0,000000	1735502895,441087	0,000000
522683,000000	2397,987992	1667,067409	-732,811168	3,483146	8,307397	0,800937	-31,469390	-82,179904	0,000000	0,000000	1735502895,443087	0,000000
522684,000000	2396,441996	1664,971933	-733,351335	3,483146	8,298084	0,670552	-31,627715	-79,888850	0,000000	0,000000	1735502895,445087	0,000000
522685,000000	2393,927425	1661,581919	-734,226778	3,408641	8,316711	0,633299	-31,841919	-79,125166	0,000000	0,000000	1735502895,447087	0,000000
522686,000000	2392,465249	1659,085974	-735,223293	3,306195	8,437783	0,540167	-31,339005	-80,941245	0,000000	0,000000	1735502895,449087	0,000000
522687,000000	2392,446622	1658,573747	-735,810027	3,566965	8,596107	0,866130	-31,376258	-80,149621	0,000000	0,000000	1735502895,451087	0,000000
522688,000000	2393,499017	1660,007983	-735,437497	3,622845	8,717179	0,838190	-31,637028	-82,254410	0,000000	0,000000	1735502895,453087	0,000000
522689,000000	2395,641059	1662,643626	-734,990463	3,799796	8,847564	1,052395	-31,040981	-81,053004	0,000000	0,000000	1735502895,455087	0,000000
522690,000000	2398,034558	1666,275784	-733,621418	3,864989	8,856878	1,275912	-31,022355	-80,913305	0,000000	0,000000	1735502895,457087	0,000000
522691,000000	2399,347723	1668,510959	-732,745975	1,871958	8,465722	1,182780	-31,292439	-79,972669	0,000000	0,000000	1735502895,459087	0,000000
522692,000000	2399,086952	1668,017358	-733,016059	2,607703	8,521602	0,866130	-31,189993	-82,328916	0,000000	0,000000	1735502895,461087	0,000000
522693,000000	2397,950739	1666,806638	-733,090565	3,743917	8,400530	0,754371	-31,227246	-80,373138	0,000000	0,000000	1735502895,462087	0,000000
522694,000000	2396,367490	1665,102318	-733,109191	3,045425	8,437783	0,791624	-31,581149	-81,388280	0,000000	0,000000	1735502895,464087	0,000000
522695,000000	2394,253388	1661,945134	-734,105706	4,470348	8,735806	0,316650	-31,581149	-81,192702	0,000000	0,000000	1735502895,466087	0,000000
522696,000000	2392,372116	1659,085974	-735,186040	3,417954	8,363277	0,316650	-31,730160	-81,574544	0,000000	0,000000	1735502895,468087	0,000000
522697,000000	2392,223105	1658,126712	-736,005604	3,175810	8,102506	0,353903	-31,413510	-82,422048	0,000000	0,000000	1735502895,470087	0,000000
522698,000000	2393,331379	1659,244299	-735,977665	4,023314	8,633360	0,679865	-31,217933	-80,792233	0,000000	0,000000	1735502895,472087	0,000000
522699,000000	2395,175397	1661,665738	-735,335052	3,902242	8,661300	0,940636	-30,770898	-82,496554	0,000000	0,000000	1735502895,474087	0,000000
522700,000000	2397,550270	1665,754244	-733,677298	3,995374	8,819625	1,108274	-30,724332	-83,036721	0,000000	0,000000	1735502895,476087	0,000000
522701,000000	2399,561927	1668,715850	-732,755288	3,855675	8,782372	0,940636	-30,752271	-81,453472	0,000000	0,000000	1735502895,478087	0,000000
522702,000000	2399,394289	1668,510959	-732,773915	3,827736	8,586794	0,922009	-30,770898	-82,086772	0,000000	0,000000	1735502895,480087	0,000000
522703,000000	2398,444340	1667,626202	-732,839108	3,734604	8,475035	0,661239	-31,227246	-80,149621	0,000000	0,000000	1735502895,482087	0,000000
522704,000000	2397,326753	1666,089520	-733,239576	3,762543	8,475035	0,633299	-31,255186	-81,593171	0,000000	0,000000	1735502895,484087	0,000000
522705,000000	2395,361662	1663,295552	-733,947381	3,390014	8,409843	0,707805	-31,441450	-81,760809	0,000000	0,000000	1735502895,486087	0,000000
522706,000000	2392,902970	1660,035923	-734,860078	3,445894	8,270144	0,642613	-31,711534	-81,369653	0,000000	0,000000	1735502895,488087	0,000000
522707,000000	2391,822636	1658,238471	-735,493377	3,548339	8,465722	0,754371	-31,413510	-80,885366	0,000000	0,000000	1735502895,490087	0,000000
522708,000000	2392,660826	1658,881083	-735,661015	3,613532	8,502975	0,894070	-31,106174	-80,270693	0,000000	0,000000	1735502895,492087	0,000000
522709,000000	2394,346520	1660,920680	-735,381618	3,715977	8,633360	1,052395	-30,659139	-82,021579	0,000000	0,000000	1735502895,494087	0,000000
522710,000000	2397,121862	1664,580777	-734,431669	3,902242	8,856878	1,331791	-30,631199	-82,487240	0,000000	0,000000	1735502895,496087	0,000000
522711,000000	2399,124205	1667,793840	-733,220950	3,874302	8,894131	1,238659	-30,556694	-81,183389	0,000000	0,000000	1735502895,498087	0,000000
522712,000000	2399,059013	1668,268815	-732,662156	3,743917	8,745119	1,061708	-31,152740	-81,388280	0,000000	0,000000	1735502895,500087	0,000000
522713,000000	2398,369834	1667,691395	-732,643530	3,762543	8,717179	0,959262	-31,339005	-80,345199	0,000000	0,000000	1735502895,502087	0,000000
522714,000000	2397,513017	1666,620374	-732,792541	3,585592	8,698553	0,987202	-30,929223	-81,285834	0,000000	0,000000	1735502895,503087	0,000000
522715,000000	2395,529300	1664,096490	-733,286142	3,473833	8,270144	0,484288	-31,273812	-81,760809	0,000000	0,000000	1735502895,505087	0,000000
522716,000000	2393,070608	1660,753042	-734,189525	3,250316	8,214265	0,465661	-31,683594	-81,947073	0,000000	0,000000	1735502895,507087	0,000000
522717,000000	2391,990274	1658,378169	-735,474750	3,138557	8,754432	0,568107	-31,571835	-79,199672	0,000000	0,000000	1735502895,509087	0,000000
522718,000000	2392,223105	1658,275723	-735,772774	3,380701	8,754432	0,633299	-31,339005	-81,900507	0,000000	0,000000	1735502895,511087	0,000000
522719,000000	2393,154427	1659,858972	-735,241920	3,883615	8,549541	0,912696	-31,366944	-82,198530	0,000000	0,000000	1735502895,513087	0,000000
522720,000000	2395,641059	1663,425937	-734,152272	4,014000	8,791685	1,275912	-31,078234	-81,127509	0,000000	0,000000	1735502895,515087	0,000000
522721,000000	2398,388460	1667,132601	-733,053312	3,352761	9,005889	1,341105	-30,715019	-80,894679	0,000000	0,000000	1735502895,517087	0,000000
522722,000000	2398,947254	1668,641344	-732,140616	3,911555	8,856878	0,931323	-30,882657	-82,328916	0,000000	0,000000	1735502895,519087	0,000000
522723,000000	2398,239449	1667,747274	-732,103363	1,303852	7,990748	0,847504	-30,631199	-81,704929	0,000000	0,000000	1735502895,521087	0,000000
522724,000000	2397,196367	1666,853204	-732,140616	2,859160	8,344650	0,661239	-31,217933	-80,727041	0,000000	0,000000	1735502895,523087	0,000000
522725,000000	2395,212650	1664,785668	-732,364133	3,585592	8,475035	0,549480	-31,795353	-81,565231	0,000000	0,000000	1735502895,525087	0,000000
522726,000000	2393,024042	1661,442220	-733,500347	3,427267	8,540228	0,474975	-31,832606	-82,207844	0,000000	0,000000	1735502895,527087	0,000000
522727,000000	2391,515300	1658,760011	-734,636560	3,380701	8,372590	0,530854	-31,599775	-80,913305	0,000000	0,000000	1735502895,529087	0,000000
522728,000000	2391,533926	1658,117399	-735,307112	3,390014	8,437783	0,661239	-31,134114	-80,885366	0,000000	0,000000	1735502895,531087	0,000000
522729,000000	2392,679453	1659,486443	-735,064968	3,585592	8,773059	0,884756	-31,283125	-81,481412	0,000000	0,000000	1735502895,533087	0,000000
522730,000000	2394,663170	1662,466675	-734,180212	3,706664	9,015203	1,108274	-31,124800	-81,406906	0,000000	0,000000	1735502895,535087	0,000000
522731,000000	2397,261560	1666,340977	-732,783228	3,958121	9,136274	1,136214	-30,798838	-80,438331	0,000000	0,000000	1735502895,537087	0,000000
522732,000000	2398,695797	1668,520272	-731,991604	3,753230	9,024516	1,033768	-31,115487	-80,363825	0,000000	0,000000	1735502895,539087	0,000000
522733,000000	2398,099750	1667,886972	-732,121989	3,548339	8,698553	0,707805	-31,106174	-82,701445	0,000000	0,000000	1735502895,541087	0,000000
522734,000000	2397,149801	1666,797325	-732,317567	3,464520	8,549541	0,791624	-31,115487	-81,229955	0,000000	0,000000	1735502895,543087	0,000000
522735,000000	2395,799384	1665,186137	-732,578337	3,352761	8,372590	0,754371	-31,301752	-80,466270	0,000000	0,000000	1735502895,545087	0,000000
522736,000000	2393,638715	1662,326977	-733,323395	3,445894	8,186325	0,437722	-31,627715	-81,229955	0,000000	0,000000	1735502895,546087	0,000000
522737,000000	2391,897142	1659,533009	-734,198838	3,511086	8,186325	0,586733	-31,311065	-81,695616	0,000000	0,000000	1735502895,548087	0,000000
522738,000000	2391,608432	1658,387482	-735,083595	3,548339	8,353963	0,800937	-31,460077	-81,593171	0,000000	0,000000	1735502895,550087	0,000000
522739,000000	2392,847091	1659,477130	-735,232607	3,781170	8,596107	0,894070	-31,301752	-81,146136	0,000000	0,000000	1735502895,552087	0,000000
522740,000000	2394,821495	1662,001014	-734,766945	4,004687	8,894131	1,071021	-30,808151	-81,388280	0,000000	0,000000	1735502895,554087	0,000000
522741,000000	2397,242934	1665,782183	-733,407214	4,144385	8,800998	1,210719	-30,454248	-82,766637	0,000000	0,000000	1735502895,556087	0,000000
522742,000000	2398,686484	1668,604091	-732,084736	4,023314	8,754432	1,043081	-30,882657	-80,177560	0,000000	0,000000	1735502895,558087	0,000000
522743,000000	2398,351207	1668,427140	-731,879845	3,827736	8,726493	0,819564	-31,022355	-80,447644	0,000000	0,000000	1735502895,560087	0,000000
522744,000000	2397,578210	1667,486504	-732,028857	3,715977	8,493662	0,614673	-30,705705	-81,332400	0,000000	0,000000	1735502895,562087	0,000000
522745,000000	2396,292984	1666,005701	-732,215121	3,632158	8,428469	0,791624	-31,255186	-81,127509	0,000000	0,000000	1735502895,564087	0,000000
522746,000000	2394,113690	1663,155854	-732,894987	2,905726	8,447096	0,810251	-31,562522	-81,276521	0,000000	0,000000	1735502895,566087	0,000000
522747,000000	2392,400056	1660,175622	-734,077767	2,356246	9,099022	0,987202	-32,139942	-80,652535	0,000000	0,000000	1735502895,568087	0,000000
522748,000000	2391,515300	1658,611000	-734,739006	3,790483	8,707866	0,707805	-31,543896	-82,766637	0,000000	0,000000	1735502895,570087	0,000000
522749,000000	2392,297611	1659,356058	-734,822825	3,855675	8,651987	0,800937	-30,854717	-84,312633	0,000000	0,000000	1735502895,572087	0,000000
522750,000000	2393,797040	1661,414281	-734,236091	3,455207	8,912757	1,043081	-31,208619	-83,642080	0,000000	0,000000	1735502895,574087	0,000000
522751,000000	2396,274358	1665,037125	-733,062625	3,566965	8,856878	1,266599	-30,985102	-82,487240	0,000000	0,000000	1735502895,576087	0,000000
522752,000000	2398,351207	1668,296754	-731,972978	4,023314	8,679926	0,987202	-30,687079	-82,412735	0,000000	0,000000	1735502895,578087	0,000000
522753,000000	2398,677170	1668,827608	-731,796026	3,837049	8,717179	0,866130	-31,013042	-82,133338	0,000000	0,000000	1735502895,580087	0,000000
522754,000000	2398,341894	1668,045297	-732,233748	3,529713	8,437783	0,726432	-30,994415	-82,431361	0,000000	0,000000	1735502895,582087	0,000000
522755,000000	2397,196367	1666,666940	-732,466578	3,818423	8,558854	0,735745	-31,059608	-80,652535	0,000000	0,000000	1735502895,584087	0,000000
522756,000000	2395,147458	1664,347947	-732,755288	3,734604	8,465722	0,502914	-31,497329	-79,981983	0,000000	0,000000	1735502895,586087	0,000000
522757,000000	2392,688766	1660,585403	-733,956695	4,041940	8,568168	0,298023	-31,664968	-82,040206	0,000000	0,000000	1735502895,587087	0,000000
522758,000000	2391,263843	1658,340916	-734,878704	3,445894	8,419156	0,661239	-31,562522	-81,127509	0,000000	0,000000	1735502895,589087	0,000000
522759,000000	2392,036840	1658,787951	-735,055655	3,259629	8,614734	0,791624	-31,385571	-82,347542	0,000000	0,000000	1735502895,591087	0,000000
522760,000000	2393,554896	1660,501584	-734,711066	3,390014	8,810312	1,043081	-31,357631	-83,688647	0,000000	0,000000	1735502895,593087	0,000000
522761,000000	2396,143973	1664,236188	-733,705238	3,837049	8,754432	1,201406	-31,143427	-82,785264	0,000000	0,000000	1735502895,595087	0,000000
522762,000000	2398,183569	1667,896286	-732,047483	3,464520	8,624047	1,145527	-30,910596	-79,637393	0,000000	0,000000	1735502895,597087	0,000000
522763,000000	2398,351207	1669,069752	-731,227919	3,799796	8,624047	0,940636	-30,947849	-80,270693	0,000000	0,000000	1735502895,599087	0,000000
522764,000000	2398,286015	1668,380573	-731,749460	3,715977	8,661300	0,828877	-30,528754	-80,056489	0,000000	0,000000	1735502895,601087	0,000000
522765,000000	2397,587523	1667,216420	-732,252374	3,697351	8,605421	0,689179	-31,050295	-81,313774	0,000000	0,000000	1735502895,603087	0,000000
522766,000000	2395,790070	1665,018499	-732,652843	3,427267	8,549541	0,596046	-31,189993	-82,449988	0,000000	0,000000	1735502895,605087	0,000000
522767,000000	2393,946052	1662,103459	-733,612105	3,017485	9,275973	0,651926	-31,813979	-81,500039	0,000000	0,000000	1735502895,607087	0,000000
522768,000000	2392,623574	1660,166308	-734,366477	3,231689	8,372590	0,596046	-31,348318	-80,717728	0,000000	0,000000	1735502895,609087	0,000000
522769,000000	2392,791212	1659,542322	-735,018402	3,855675	8,381903	0,819564	-31,040981	-79,898164	0,000000	0,000000	1735502895,611087	0,000000
522770,000000	2393,703908	1660,734415	-734,813511	3,678724	8,791685	0,977889	-31,255186	-79,432502	0,000000	0,000000	1735502895,613087	0,000000
522771,000000	2395,892516	1663,137227	-734,319910	2,225861	9,033829	1,294538	-30,593947	-82,449988	0,000000	0,000000	1735502895,615087	0,000000
522772,000000	2398,146316	1666,955650	-733,099878	2,365559	8,679926	1,359731	-30,184165	-82,468614	0,000000	0,000000	1735502895,617087	0,000000
522773,000000	2399,152145	1668,753102	-732,233748	3,734604	8,819625	1,005828	-31,013042	-79,823658	0,000000	0,000000	1735502895,619087	0,000000
522774,000000	2398,602664	1668,203622	-732,345507	3,743917	8,661300	0,847504	-31,236559	-80,764294	0,000000	0,000000	1735502895,621087	0,000000
522775,000000	2397,373319	1666,909084	-732,354820	3,743917	8,568168	0,763685	-31,236559	-81,537291	0,000000	0,000000	1735502895,623087	0,000000
522776,000000	2395,957708	1665,111631	-732,792541	3,650784	8,400530	0,670552	-30,994415	-80,950558	0,000000	0,000000	1735502895,625087	0,000000
522777,000000	2393,750474	1662,205905	-733,491033	3,548339	8,447096	0,419095	-31,264499	-80,354512	0,000000	0,000000	1735502895,627087	0,000000
522778,000000	2391,720191	1659,216359	-734,506175	3,417954	8,540228	0,456348	-31,059608	-81,434846	0,000000	0,000000	1735502895,628087	0,000000
522779,000000	2391,664311	1658,527181	-735,139474	3,706664	8,661300	0,828877	-31,432137	-83,576888	0,000000	0,000000	1735502895,630087	0,000000
522780,000000	2392,977476	1659,709960	-735,158101	3,827736	8,773059	0,931323	-31,152740	-82,636252	0,000000	0,000000	1735502895,632087	0,000000
522781,000000	2394,951880	1662,196591	-734,496862	3,743917	8,828938	1,098961	-30,845404	-80,727041	0,000000	0,000000	1735502895,634087	0,000000
522782,000000	2397,475764	1666,210592	-733,071938	3,939494	9,043142	1,322478	-30,463561	-80,801547	0,000000	0,000000	1735502895,636087	0,000000
522783,000000	2398,835495	1668,976620	-731,823966	3,874302	9,005889	1,182780	-30,612573	-83,539635	0,000000	0,000000	1735502895,638087	0,000000
522784,000000	2398,388460	1668,846235	-731,507316	3,688037	8,875504	0,828877	-30,789524	-82,533807	0,000000	0,000000	1735502895,640087	0,000000
522785,000000	2397,736534	1667,849720	-731,768087	3,622845	8,782372	0,866130	-31,134114	-80,829486	0,000000	0,000000	1735502895,642087	0,000000
522786,000000	2396,563068	1666,238531	-732,103363	3,669411	8,605421	0,698492	-31,245872	-79,972669	0,000000	0,000000	1735502895,644087	0,000000
522787,000000	2394,393086	1663,314179	-732,932240	3,539026	8,540228	0,493601	-31,515956	-82,217157	0,000000	0,000000	1735502895,646087	0,000000
522788,000000	2392,306924	1660,222188	-733,956695	3,371388	8,521602	0,409782	-31,432137	-80,950558	0,000000	0,000000	1735502895,648087	0,000000
522789,000000	2391,794696	1658,843830	-734,878704	3,622845	8,698553	0,633299	-30,966476	-82,785264	0,000000	0,000000	1735502895,650087	0,000000
522790,000000	2392,502502	1659,588888	-734,729692	3,632158	8,717179	0,782311	-31,162053	-82,328916	0,000000	0,000000	1735502895,652087	0,000000
522791,000000	2394,402400	1661,805436	-734,459609	3,864989	8,884817	1,015142	-30,677766	-81,500039	0,000000	0,000000	1735502895,654087	0,000000
522792,000000	2396,935597	1665,614545	-733,258203	3,911555	8,968636	1,154840	-30,873343	-82,487240	0,000000	0,000000	1735502895,656087	0,000000
522793,000000	2398,779616	1668,510959	-732,094049	4,321337	9,164214	1,080334	-30,957162	-79,711899	0,000000	0,000000	1735502895,658087	0,000000
522794,000000	2398,975194	1668,995246	-731,740147	4,395843	9,322539	1,005828	-31,236559	-81,742182	0,000000	0,000000	1735502895,660087	0,000000
522795,000000	2398,407087	1668,166369	-732,140616	3,874302	8,717179	0,838190	-30,845404	-81,649050	0,000000	0,000000	1735502895,662087	0,000000
522796,000000	2397,196367	1666,639000	-732,410699	3,669411	8,530915	0,623986	-31,096861	-82,403421	0,000000	0,000000	1735502895,664087	0,000000
522797,000000	2395,296469	1663,751900	-733,286142	4,973263	8,856878	0,549480	-31,627715	-85,625798	0,000000	0,000000	1735502895,666087	0,000000
522798,000000	2392,642200	1660,604030	-733,863562	3,250316	8,158386	0,521541	-31,376258	-82,319602	0,000000	0,000000	1735502895,668087	0,000000
522799,000000	2391,850576	1658,881083	-734,711066	1,946464	9,052455	0,949949	-31,581149	-82,366168	0,000000	0,000000	1735502895,670087	0,000000
522800,000000	2392,940223	1659,374684	-735,372305	2,728775	8,968636	1,080334	-31,553209	-81,127509	0,000000	0,000000	1735502895,671087	0,000000
522801,000000	2394,691110	1661,395654	-735,195354	3,911555	8,810312	0,931323	-31,432137	-81,192702	0,000000	0,000000	1735502895,673087	0,000000
522802,000000	2397,112548	1664,599404	-734,478235	3,911555	8,912757	1,238659	-31,171367	-83,316118	0,000000	0,000000	1735502895,675087	0,000000
522803,000000	2399,059013	1668,008044	-732,829794	2,793968	8,940697	1,294538	-30,957162	-82,598999	0,000000	0,000000	1735502895,677087	0,000000
522804,000000	2399,599180	1669,004560	-732,252374	3,837049	8,819625	1,005828	-31,031668	-82,431361	0,000000	0,000000	1735502895,679087	0,000000
522805,000000	2399,245277	1668,306068	-732,550398	3,119931	8,838251	1,117587	-31,162053	-80,494210	0,000000	0,000000	1735502895,681087	0,000000
522806,000000	2398,705110	1667,654142	-732,708722	3,185123	9,704381	1,341105	-32,037497	-79,842284	0,000000	0,000000	1735502895,683087	0,000000
522807,000000	2396,572381	1665,810123	-732,680783	3,203750	8,530915	0,670552	-31,543896	-81,732869	0,000000	0,000000	1735502895,685087	0,000000
522808,000000	2393,946052	1662,066206	-733,779743	3,408641	8,204952	0,428408	-31,525269	-81,276521	0,000000	0,000000	1735502895,687087	0,000000
522809,000000	2392,604947	1659,635454	-734,766945	3,352761	8,316711	0,521541	-31,264499	-81,751496	0,000000	0,000000	1735502895,689087	0,000000
522810,000000	2392,670140	1659,663394	-734,841451	3,464520	8,447096	0,698492	-31,217933	-80,252066	0,000000	0,000000	1735502895,691087	0,000000
522811,000000	2393,480390	1660,985872	-734,375790	3,771856	8,735806	0,949949	-31,143427	-80,605969	0,000000	0,000000	1735502895,693087	0,000000
522812,000000	2395,715564	1664,124429	-733,491033	3,883615	9,005889	1,164153	-31,189993	-80,773607	0,000000	0,000000	1735502895,695087	0,000000
522813,000000	2398,230135	1667,868346	-732,205808	3,986061	8,903444	1,210719	-30,985102	-82,654878	0,000000	0,000000	1735502895,697087	0,000000
522814,000000	2399,096265	1669,777557	-731,078908	3,837049	8,624047	0,949949	-31,115487	-82,273036	0,000000	0,000000	1735502895,699087	0,000000
522815,000000	2398,164943	1669,339836	-730,762258	3,613532	8,558854	0,828877	-31,543896	-80,913305	0,000000	0,000000	1735502895,701087	0,000000
522816,000000	2397,345379	1668,613404	-730,622560	3,725290	8,614734	0,679865	-31,422824	-82,720071	0,000000	0,000000	1735502895,703087	0,000000
522817,000000	2395,706251	1666,629687	-731,097534	3,529713	8,540228	0,754371	-31,627715	-80,959871	0,000000	0,000000	1735502895,705087	0,000000
522818,000000	2393,266186	1663,509756	-731,768087	3,417954	8,316711	0,558794	-31,823292	-80,345199	0,000000	0,000000	1735502895,707087	0,000000
522819,000000	2391,608432	1660,538837	-733,006746	3,315508	8,288771	0,717118	-31,776726	-81,546605	0,000000	0,000000	1735502895,709087	0,000000
522820,000000	2391,403541	1659,737900	-733,602792	3,585592	8,447096	0,800937	-31,441450	-82,654878	0,000000	0,000000	1735502895,711087	0,000000
522821,000000	2392,735332	1661,190763	-733,397901	3,688037	8,577481	0,856817	-31,366944	-81,388280	0,000000	0,000000	1735502895,712087	0,000000
522822,000000	2395,166084	1663,900912	-732,997432	3,995374	8,698553	1,071021	-30,966476	-80,382451	0,000000	0,000000	1735502895,714087	0,000000
522823,000000	2397,811040	1667,588949	-732,075423	4,116446	8,754432	1,210719	-30,370429	-81,472099	0,000000	0,000000	1735502895,716087	0,000000
522824,000000	2399,757504	1670,178026	-731,498003	3,967434	8,642673	1,043081	-30,798838	-82,515180	0,000000	0,000000	1735502895,718087	0,000000
522825,000000	2399,263903	1670,392230	-730,827451	3,771856	8,493662	0,912696	-31,227246	-82,133338	0,000000	0,000000	1735502895,720087	0,000000
522826,000000	2398,220822	1669,703051	-730,454922	3,781170	8,400530	0,707805	-31,506643	-82,310289	0,000000	0,000000	1735502895,722087	0,000000
522827,000000	2396,842465	1668,008044	-730,687752	3,520399	8,409843	0,651926	-31,478703	-80,587342	0,000000	0,000000	1735502895,724087	0,000000
522828,000000	2394,551411	1664,888114	-731,563196	3,827736	8,977950	0,679865	-31,767413	-81,332400	0,000000	0,000000	1735502895,726087	0,000000
522829,000000	2392,306924	1661,870629	-732,336193	3,958121	9,043142	0,698492	-31,832606	-80,727041	0,000000	0,000000	1735502895,728087	0,000000
522830,000000	2391,943708	1660,697162	-733,109191	3,622845	8,195639	0,735745	-31,413510	-81,639737	0,000000	0,000000	1735502895,730087	0,000000
522831,000000	2393,145114	1661,814749	-733,304769	3,771856	8,521602	0,828877	-31,385571	-81,257895	0,000000	0,000000	1735502895,732087	0,000000
522832,000000	2395,156771	1664,422452	-732,699409	4,135072	8,782372	0,977889	-31,432137	-80,196187	0,000000	0,000000	1735502895,734087	0,000000
522833,000000	2397,736534	1668,306068	-731,293112	3,874302	8,735806	1,108274	-31,162053	-80,578029	0,000000	0,000000	1735502895,736087	0,000000
522834,000000	2400,241792	1671,612263	-730,417669	3,492460	8,493662	1,182780	-30,938536	-80,587342	0,000000	0,000000	1735502895,738087	0,000000
522835,000000	2400,670201	1672,133803	-730,482861	3,799796	8,549541	0,949949	-31,283125	-81,770122	0,000000	0,000000	1735502895,740087	0,000000
522836,000000	2400,027588	1671,155915	-730,799511	3,920868	8,707866	0,828877	-31,283125	-82,701445	0,000000	0,000000	1735502895,742087	0,000000
522837,000000	2399,189398	1669,572666	-731,563196	3,715977	8,447096	0,754371	-31,460077	-81,323087	0,000000	0,000000	1735502895,744087	0,000000
522838,000000	2396,982163	1666,545868	-732,298940	3,585592	8,260831	0,661239	-31,553209	-82,124025	0,000000	0,000000	1735502895,746087	0,000000
522839,000000	2394,504845	1663,137227	-733,202323	3,622845	8,177012	0,633299	-31,972304	-80,252066	0,000000	0,000000	1735502895,748087	0,000000
522840,000000	2393,415198	1661,293209	-733,872876	3,688037	8,381903	0,670552	-31,832606	-80,186874	0,000000	0,000000	1735502895,750087	0,000000
522841,000000	2393,983305	1661,516726	-734,264031	3,855675	8,381903	0,959262	-31,692907	-80,866739	0,000000	0,000000	1735502895,752087	0,000000
522842,000000	2395,408228	1663,444564	-733,844936	3,939494	8,558854	1,108274	-31,525269	-80,717728	0,000000	0,000000	1735502895,753087	0,000000
522843,000000	2397,811040	1666,815951	-732,904300	3,986061	8,875504	1,266599	-31,441450	-82,869083	0,000000	0,000000	1735502895,755087	0,000000
522844,000000	2400,120720	1669,935882	-732,019544	3,911555	8,810312	1,117587	-31,199306	-81,416219	0,000000	0,000000	1735502895,757087	0,000000
522845,000000	2400,055528	1670,373604	-731,535256	3,837049	8,605421	1,080334	-31,674281	-80,764294	0,000000	0,000000	1735502895,759087	0,000000
522846,000000	2399,059013	1669,144258	-731,851906	3,911555	8,670613	0,875443	-31,488016	-82,198530	0,000000	0,000000	1735502895,761087	0,000000
522847,000000	2398,146316	1667,598262	-732,420012	3,976747	8,558854	0,772998	-31,674281	-81,369653	0,000000	0,000000	1735502895,763087	0,000000
522848,000000	2396,218479	1664,562151	-733,397901	4,256144	8,568168	0,679865	-31,813979	-81,285834	0,000000	0,000000	1735502895,765087	0,000000
522849,000000	2393,741161	1661,265269	-734,385103	3,483146	8,158386	0,651926	-31,786039	-81,099570	0,000000	0,000000	1735502895,767087	0,000000
522850,000000	2392,446622	1658,899710	-735,390931	3,613532	7,906929	0,540167	-31,758100	-81,416219	0,000000	0,000000	1735502895,769087	0,000000
522851,000000	2392,735332	1658,611000	-735,698268	3,334135	8,167699	0,596046	-31,385571	-82,086772	0,000000	0,000000	1735502895,771087	0,000000
522852,000000	2393,713221	1660,184935	-735,297799	3,390014	8,800998	1,005828	-31,366944	-80,009922	0,000000	0,000000	1735502895,773087	0,000000
522853,000000	2395,771444	1663,127914	-734,673813	3,902242	8,819625	1,061708	-31,553209	-80,084428	0,000000	0,000000	1735502895,775087	0,000000
522854,000000	2398,146316	1666,648313	-733,407214	3,976747	8,800998	1,052395	-30,966476	-81,025064	0,000000	0,000000	1735502895,777087	0,000000
522855,000000	2398,835495	1668,212935	-732,652843	3,725290	8,651987	1,089647	-31,655654	-81,667677	0,000000	0,000000	1735502895,779087	0,000000
522856,000000	2398,155630	1667,579636	-732,531771	3,585592	8,558854	0,968575	-31,655654	-79,618767	0,000000	0,000000	1735502895,781087	0,000000
522857,000000	2397,382632	1666,508615	-732,680783	3,576279	8,596107	0,912696	-31,469390	-81,509352	0,000000	0,000000	1735502895,783087	0,000000
522858,000000	2395,836636	1664,431766	-733,193010	3,352761	8,502975	0,558794	-31,879172	-83,111227	0,000000	0,000000	1735502895,785087	0,000000
522859,000000	2393,350005	1661,209390	-734,049827	3,399327	8,530915	0,502914	-32,112002	-81,732869	0,000000	0,000000	1735502895,787087	0,000000
522860,000000	2391,748130	1658,601686	-734,943897	3,408641	8,419156	0,502914	-31,832606	-81,975013	0,000000	0,000000	1735502895,789087	0,000000
522861,000000	2392,036840	1658,340916	-735,661015	3,669411	8,614734	0,745058	-31,767413	-80,810860	0,000000	0,000000	1735502895,791087	0,000000
522862,000000	2393,275499	1659,682021	-735,567883	3,799796	8,717179	0,875443	-31,664968	-80,103055	0,000000	0,000000	1735502895,793087	0,000000
522863,000000	2395,538613	1662,634313	-734,794885	3,986061	8,838251	0,996515	-30,910596	-81,369653	0,000000	0,000000	1735502895,795087	0,000000
522864,000000	2397,969365	1666,368917	-733,537599	3,939494	8,940697	1,210719	-30,556694	-82,161278	0,000000	0,000000	1735502895,796087	0,000000
522865,000000	2399,282530	1668,734476	-732,336193	3,809109	8,679926	0,977889	-30,798838	-81,956387	0,000000	0,000000	1735502895,798087	0,000000
522866,000000	2398,667857	1668,240875	-732,280314	3,892928	8,670613	0,884756	-31,087548	-81,732869	0,000000	0,000000	1735502895,800087	0,000000
522867,000000	2398,015931	1667,160541	-732,773915	3,725290	8,661300	0,735745	-31,506643	-81,369653	0,000000	0,000000	1735502895,802087	0,000000
522868,000000	2396,674827	1665,325835	-733,155757	3,622845	8,428469	0,633299	-31,562522	-80,093741	0,000000	0,000000	1735502895,804087	0,000000
522869,000000	2394,272014	1662,494615	-733,593479	3,213063	8,158386	0,419095	-31,841919	-81,434846	0,000000	0,000000	1735502895,806087	0,000000
522870,000000	2392,753959	1659,682021	-735,046342	3,138557	8,298084	0,381842	-31,990930	-81,611797	0,000000	0,000000	1735502895,808087	0,000000
522871,000000	2392,670140	1658,769324	-735,810027	3,557652	8,558854	0,596046	-31,590462	-80,168247	0,000000	0,000000	1735502895,810087	0,000000
522872,000000	2393,433824	1659,654081	-735,716894	3,688037	8,633360	0,698492	-31,013042	-79,525635	0,000000	0,000000	1735502895,812087	0,000000
522873,000000	2394,672483	1661,749557	-734,804198	3,511086	8,363277	0,912696	-31,134114	-82,440674	0,000000	0,000000	1735502895,814087	0,000000
522874,000000	2397,084609	1665,186137	-733,677298	3,371388	8,353963	1,071021	-31,124800	-82,980841	0,000000	0,000000	1735502895,816087	0,000000
522875,000000	2398,900688	1667,980105	-732,820481	3,967434	8,679926	1,052395	-31,003729	-82,002953	0,000000	0,000000	1735502895,818087	0,000000
522876,000000	2398,574725	1667,663455	-732,811168	4,032627	8,782372	0,819564	-31,096861	-80,969185	0,000000	0,000000	1735502895,820087	0,000000
522877,000000	2397,717908	1666,033641	-733,621418	3,855675	8,633360	0,940636	-31,180680	-81,770122	0,000000	0,000000	1735502895,822087	0,000000
522878,000000	2396,656200	1663,938165	-734,692439	2,272427	8,065253	0,754371	-31,087548	-83,502382	0,000000	0,000000	1735502895,824087	0,000000
522879,000000	2395,249903	1661,060378	-735,893846	2,123415	7,534400	0,400469	-31,003729	-81,490725	0,000000	0,000000	1735502895,826087	0,000000
522880,000000	2394,439653	1658,555120	-737,728551	2,756715	7,823110	0,251457	-31,339005	-81,732869	0,000000	0,000000	1735502895,828087	0,000000
522881,000000	2395,333722	1657,931134	-739,349052	2,570450	8,195639	0,717118	-31,311065	-82,058832	0,000000	0,000000	1735502895,830087	0,000000
522882,000000	2398,323268	1660,073176	-740,196556	3,520399	8,568168	0,856817	-31,134114	-82,645565	0,000000	0,000000	1735502895,832087	0,000000
522883,000000	2402,160317	1663,519070	-740,475953	3,911555	8,698553	0,987202	-31,013042	-81,704929	0,000000	0,000000	1735502895,834087	0,000000
522884,000000	2406,816930	1669,274643	-739,311799	4,041940	8,773059	1,154840	-30,696392	-81,891194	0,000000	0,000000	1735502895,836087	0,000000
522885,000000	2410,802990	1675,458625	-737,179071	4,116446	8,847564	1,192093	-30,817464	-80,093741	0,000000	0,000000	1735502895,837087	0,000000
522886,000000	2412,870526	1680,208370	-734,608620	3,799796	8,642673	0,838190	-30,966476	-81,565231	0,000000	0,000000	1735502895,839087	0,000000
522887,000000	2414,435148	1683,710143	-732,578337	3,781170	8,577481	0,707805	-31,460077	-83,129853	0,000000	0,000000	1735502895,841087	0,000000
522888,000000	2414,714545	1687,025651	-729,598105	3,529713	8,577481	0,670552	-30,826777	-82,068145	0,000000	0,000000	1735502895,843087	0,000000
522889,000000	2414,295450	1691,272482	-724,894926	3,464520	8,437783	0,549480	-31,581149	-82,068145	0,000000	0,000000	1735502895,845087	0,000000
522890,000000	2413,345501	1695,565879	-719,642267	3,324822	8,186325	0,465661	-31,664968	-80,624595	0,000000	0,000000	1735502895,847087	0,000000
522891,000000	2412,954345	1700,390130	-714,333728	3,529713	8,447096	0,437722	-31,813979	-80,252066	0,000000	0,000000	1735502895,849087	0,000000
522892,000000	2413,047478	1707,235351	-707,600266	3,734604	8,726493	0,586733	-31,469390	-81,472099	0,000000	0,000000	1735502895,851087	0,000000
522893,000000	2413,857728	1714,555547	-701,108947	3,641471	8,763745	0,847504	-31,217933	-81,099570	0,000000	0,000000	1735502895,853087	0,000000
522894,000000	2416,232601	1722,257584	-695,744529	3,641471	9,182841	1,145527	-30,947849	-81,462786	0,000000	0,000000	1735502895,855087	0,000000
522895,000000	2417,210490	1726,457849	-692,419708	4,759058	7,962808	0,596046	-30,696392	-83,157793	0,000000	0,000000	1735502895,857087	0,000000
522896,000000	2418,393269	1725,489274	-694,757327	4,107133	8,633360	0,828877	-31,106174	-80,959871	0,000000	0,000000	1735502895,859087	0,000000
522897,000000	2418,672666	1722,257584	-698,296353	3,827736	8,614734	0,707805	-31,096861	-80,624595	0,000000	0,000000	1735502895,861087	0,000000
522898,000000	2414,882183	1717,479900	-699,162483	3,762543	8,605421	0,679865	-31,264499	-81,080943	0,000000	0,000000	1735502895,863087	0,000000
522899,000000	2410,029992	1709,628850	-702,245161	3,743917	8,363277	0,642613	-31,581149	-82,515180	0,000000	0,000000	1735502895,865087	0,000000
522900,000000	2405,792475	1697,074622	-710,571185	3,445894	8,381903	0,363216	-31,357631	-84,284693	0,000000	0,000000	1735502895,867087	0,000000
522901,000000	2402,225509	1686,122268	-717,844814	3,548339	8,391216	0,493601	-31,515956	-84,163621	0,000000	0,000000	1735502895,869087	0,000000
522902,000000	2399,515361	1677,731052	-723,637640	3,660098	8,530915	0,745058	-31,320378	-81,229955	0,000000	0,000000	1735502895,871087	0,000000
522903,000000	2398,379147	1671,360806	-729,048625	3,743917	8,624047	1,033768	-30,975789	-80,512837	0,000000	0,000000	1735502895,873087	0,000000
522904,000000	2399,655059	1668,687910	-732,894987	3,976747	8,679926	1,192093	-30,938536	-82,012266	0,000000	0,000000	1735502895,875087	0,000000
522905,000000	2402,421087	1669,544727	-734,804198	3,902242	8,912757	0,968575	-30,985102	-82,477927	0,000000	0,000000	1735502895,877087	0,000000
522906,000000	2403,734252	1670,932397	-734,655187	3,864989	8,661300	1,043081	-30,687079	-81,686303	0,000000	0,000000	1735502895,878087	0,000000
522907,000000	2403,575927	1670,252532	-735,297799	3,920868	8,568168	0,856817	-31,022355	-81,621110	0,000000	0,000000	1735502895,880087	0,000000
522908,000000	2403,287217	1669,749618	-735,381618	3,883615	8,568168	0,847504	-31,143427	-81,220642	0,000000	0,000000	1735502895,882087	0,000000
522909,000000	2401,936799	1668,287441	-735,614449	3,594905	8,484349	0,651926	-30,938536	-81,285834	0,000000	0,000000	1735502895,884087	0,000000
522910,000000	2399,496734	1665,474847	-735,931098	3,436580	8,391216	0,493601	-31,469390	-81,071630	0,000000	0,000000	1735502895,886087	0,000000
522911,000000	2397,531644	1662,625000	-736,834481	3,417954	8,298084	0,447035	-31,488016	-80,345199	0,000000	0,000000	1735502895,888087	0,000000
522912,000000	2397,531644	1661,758870	-737,775117	3,511086	8,530915	0,717118	-31,068921	-83,008781	0,000000	0,000000	1735502895,890087	0,000000
522913,000000	2398,127690	1662,373543	-737,663358	3,678724	8,558854	0,847504	-31,068921	-82,943588	0,000000	0,000000	1735502895,892087	0,000000
522914,000000	2399,580553	1664,636657	-736,759976	3,837049	8,931383	0,912696	-31,385571	-82,459301	0,000000	0,000000	1735502895,894087	0,000000
522915,000000	2401,713282	1668,278128	-735,213980	3,967434	9,033829	1,182780	-31,087548	-81,285834	0,000000	0,000000	1735502895,896087	0,000000
522916,000000	2402,830869	1670,662314	-734,031200	3,958121	8,866191	1,136214	-31,441450	-81,369653	0,000000	0,000000	1735502895,898087	0,000000
522917,000000	2402,467653	1670,531929	-733,835623	3,818423	8,512288	0,996515	-31,376258	-80,736354	0,000000	0,000000	1735502895,900087	0,000000
522918,000000	2402,057871	1669,423655	-734,515488	3,678724	8,465722	0,791624	-31,702220	-81,099570	0,000000	0,000000	1735502895,902087	0,000000
522919,000000	2400,642261	1667,682081	-734,757632	3,678724	8,195639	0,521541	-32,018870	-82,366168	0,000000	0,000000	1735502895,904087	0,000000
522920,000000	2397,783101	1664,971933	-734,766945	3,371388	8,186325	0,549480	-31,525269	-82,012266	0,000000	0,000000	1735502895,906087	0,000000
522921,000000	2395,566553	1661,553979	-735,884532	3,334135	8,186325	0,623986	-31,543896	-81,351027	0,000000	0,000000	1735502895,908087	0,000000
522922,000000	2394,644544	1659,831032	-736,750662	3,445894	8,484349	0,530854	-31,171367	-82,580373	0,000000	0,000000	1735502895,910087	0,000000
522923,000000	2395,268530	1660,278067	-736,787915	3,529713	8,754432	0,800937	-31,488016	-81,323087	0,000000	0,000000	1735502895,912087	0,000000
522924,000000	2396,712080	1662,410796	-736,126676	3,632158	8,596107	1,210719	-31,227246	-81,304461	0,000000	0,000000	1735502895,914087	0,000000
522925,000000	2399,329096	1665,949821	-735,260546	3,799796	8,773059	1,480803	-30,957162	-81,378967	0,000000	0,000000	1735502895,916087	0,000000
522926,000000	2401,266247	1668,864861	-734,245405	3,399327	8,959323	1,462176	-31,143427	-83,036721	0,000000	0,000000	1735502895,918087	0,000000
522927,000000	2401,564270	1669,265330	-733,928755	3,008172	9,350479	1,201406	-31,441450	-82,440674	0,000000	0,000000	1735502895,920087	0,000000
522928,000000	2400,828525	1668,483019	-734,282658	3,762543	8,624047	0,828877	-31,199306	-82,701445	0,000000	0,000000	1735502895,921087	0,000000
522929,000000	2399,990335	1667,374745	-734,478235	3,613532	8,428469	0,828877	-31,152740	-80,289319	0,000000	0,000000	1735502895,923087	0,000000
522930,000000	2398,164943	1665,093005	-734,925270	3,641471	8,223578	0,540167	-31,469390	-81,667677	0,000000	0,000000	1735502895,925087	0,000000
522931,000000	2396,050841	1661,935821	-735,912472	3,492460	8,223578	0,428408	-31,348318	-81,714243	0,000000	0,000000	1735502895,927087	0,000000
522932,000000	2394,821495	1659,849659	-736,881047	3,585592	8,326024	0,502914	-32,037497	-83,381310	0,000000	0,000000	1735502895,929087	0,000000
522933,000000	2395,519987	1660,203561	-737,365335	3,734604	8,689240	0,726432	-31,432137	-82,198530	0,000000	0,000000	1735502895,931087	0,000000
522934,000000	2396,861091	1661,758870	-737,011433	3,743917	8,735806	1,005828	-31,096861	-81,267208	0,000000	0,000000	1735502895,933087	0,000000
522935,000000	2399,347723	1665,279269	-735,931098	4,116446	9,024516	1,080334	-31,143427	-80,559403	0,000000	0,000000	1735502895,935087	0,000000
522936,000000	2401,610836	1668,781042	-734,748319	3,976747	9,052455	1,210719	-31,273812	-80,792233	0,000000	0,000000	1735502895,937087	0,000000
522937,000000	2402,346581	1670,159400	-734,049827	3,902242	8,800998	0,949949	-31,581149	-81,574544	0,000000	0,000000	1735502895,939087	0,000000
522938,000000	2401,778474	1668,902114	-734,673813	3,706664	8,512288	0,782311	-31,217933	-81,593171	0,000000	0,000000	1735502895,941087	0,000000
522939,000000	2400,605008	1667,411998	-734,971836	3,585592	8,456409	0,745058	-31,311065	-82,002953	0,000000	0,000000	1735502895,943087	0,000000
522940,000000	2399,031073	1665,167511	-735,810027	1,378357	7,888302	0,689179	-31,525269	-82,077459	0,000000	0,000000	1735502895,945087	0,000000
522941,000000	2397,308126	1662,317663	-736,964867	1,545995	8,363277	0,726432	-31,916425	-80,866739	0,000000	0,000000	1735502895,947087	0,000000
522942,000000	2396,497875	1659,952104	-738,417730	3,427267	8,428469	0,530854	-31,618401	-81,984326	0,000000	0,000000	1735502895,949087	0,000000
522943,000000	2396,935597	1659,616828	-739,144161	3,753230	8,642673	0,763685	-31,376258	-81,956387	0,000000	0,000000	1735502895,951087	0,000000
522944,000000	2398,239449	1660,985872	-739,209354	3,864989	8,931383	0,875443	-31,096861	-81,770122	0,000000	0,000000	1735502895,953087	0,000000
522945,000000	2400,893718	1664,413139	-738,408417	3,967434	8,894131	1,154840	-30,687079	-81,826001	0,000000	0,000000	1735502895,955087	0,000000
522946,000000	2403,473482	1667,924225	-737,458467	5,410984	8,605421	1,024455	-30,389056	-82,533807	0,000000	0,000000	1735502895,957087	0,000000
522947,000000	2404,563129	1669,796184	-736,629590	3,566965	9,508803	1,182780	-31,068921	-80,717728	0,000000	0,000000	1735502895,959087	0,000000
522948,000000	2404,497936	1669,703051	-736,732036	3,566965	9,080395	1,005828	-30,752271	-79,562888	0,000000	0,000000	1735502895,961087	0,000000
522949,000000	2403,752878	1668,818295	-736,843795	3,715977	8,605421	0,735745	-31,217933	-81,053004	0,000000	0,000000	1735502895,962087	0,000000
522950,000000	2402,476966	1666,955650	-737,430528	3,511086	8,586794	0,623986	-31,106174	-80,028549	0,000000	0,000000	1735502895,964087	0,000000
522951,000000	2400,251105	1663,975418	-738,175586	3,362074	8,493662	0,456348	-31,432137	-80,456957	0,000000	0,000000	1735502895,966087	0,000000
522952,000000	2398,621291	1661,302522	-739,218667	3,306195	8,419156	0,400469	-31,227246	-82,189217	0,000000	0,000000	1735502895,968087	0,000000
522953,000000	2398,695797	1660,482958	-740,131363	3,725290	8,661300	0,661239	-31,255186	-79,944730	0,000000	0,000000	1735502895,970087	0,000000
522954,000000	2399,645746	1661,581919	-739,991665	3,781170	8,819625	0,894070	-31,450763	-81,202015	0,000000	0,000000	1735502895,972087	0,000000
522955,000000	2401,666716	1664,375886	-739,172101	3,920868	8,977950	1,192093	-30,966476	-81,174076	0,000000	0,000000	1735502895,974087	0,000000
522956,000000	2404,348925	1668,240875	-737,952068	3,855675	9,024516	1,294538	-30,733645	-80,065802	0,000000	0,000000	1735502895,976087	0,000000
522957,000000	2406,435087	1671,239734	-737,048686	3,883615	8,912757	1,043081	-30,975789	-81,053004	0,000000	0,000000	1735502895,978087	0,000000
522958,000000	2405,894920	1670,895144	-736,871734	3,743917	8,782372	0,847504	-31,096861	-81,146136	0,000000	0,000000	1735502895,980087	0,000000
522959,000000	2404,646948	1669,730991	-736,974180	3,762543	8,763745	0,707805	-31,208619	-81,723556	0,000000	0,000000	1735502895,982087	0,000000
522960,000000	2403,315157	1668,129116	-737,197697	3,585592	8,717179	0,596046	-31,413510	-82,347542	0,000000	0,000000	1735502895,984087	0,000000
522961,000000	2401,331440	1665,269956	-737,942755	3,529713	8,363277	0,437722	-31,748787	-82,952902	0,000000	0,000000	1735502895,986087	0,000000
522962,000000	2399,329096	1662,410796	-738,864765	3,529713	8,214265	0,512227	-32,018870	-81,183389	0,000000	0,000000	1735502895,988087	0,000000
522963,000000	2398,565412	1660,911366	-739,516690	3,734604	8,493662	0,717118	-31,488016	-80,559403	0,000000	0,000000	1735502895,990087	0,000000
522964,000000	2399,664372	1661,796123	-739,814714	3,781170	8,745119	0,810251	-30,985102	-82,077459	0,000000	0,000000	1735502895,992087	0,000000
522965,000000	2401,424572	1663,984731	-739,376992	4,135072	8,912757	0,903383	-31,162053	-80,978498	0,000000	0,000000	1735502895,994087	0,000000
522966,000000	2403,883263	1667,533070	-738,324597	4,097819	9,080395	1,136214	-30,947849	-81,984326	0,000000	0,000000	1735502895,996087	0,000000
522967,000000	2406,146377	1670,988277	-737,030059	3,920868	8,987263	1,164153	-30,780211	-82,096085	0,000000	0,000000	1735502895,998087	0,000000
522968,000000	2406,360582	1671,453938	-736,797228	3,725290	8,754432	0,922009	-31,124800	-82,906336	0,000000	0,000000	1735502896,000087	0,000000
522969,000000	2405,839041	1670,829952	-736,871734	3,883615	8,866191	0,800937	-31,441450	-82,645565	0,000000	0,000000	1735502896,002087	0,000000
522970,000000	2405,140549	1669,824123	-737,253577	3,688037	8,651987	0,782311	-31,441450	-80,745667	0,000000	0,000000	1735502896,003087	0,000000
522971,000000	2403,380349	1667,244360	-738,035887	3,557652	8,502975	0,530854	-31,674281	-82,245097	0,000000	0,000000	1735502896,005087	0,000000
522972,000000	2401,238307	1664,273441	-739,004463	3,473833	8,465722	0,465661	-31,497329	-81,378967	0,000000	0,000000	1735502896,007087	0,000000
522973,000000	2400,446683	1662,448049	-739,917159	3,492460	8,651987	0,512227	-31,432137	-80,512837	0,000000	0,000000	1735502896,009087	0,000000
522974,000000	2401,201054	1663,081348	-740,047544	3,706664	8,735806	0,782311	-31,525269	-80,224127	0,000000	0,000000	1735502896,011087	0,000000
522975,000000	2403,194085	1664,953306	-740,261748	4,125759	8,903444	0,940636	-31,013042	-82,207844	0,000000	0,000000	1735502896,013087	0,000000
522976,000000	2406,146377	1668,548211	-739,656389	4,069880	8,912757	1,229346	-31,050295	-81,993639	0,000000	0,000000	1735502896,015087	0,000000
522977,000000	2408,400178	1671,863720	-738,445669	3,958121	8,931383	1,145527	-31,013042	-83,511695	0,000000	0,000000	1735502896,017087	0,000000
522978,000000	2409,275621	1673,148945	-738,091767	3,641471	8,698553	0,884756	-30,966476	-82,738698	0,000000	0,000000	1735502896,019087	0,000000
522979,000000	2408,903092	1672,497019	-738,287345	3,697351	8,791685	0,810251	-31,003729	-80,512837	0,000000	0,000000	1735502896,021087	0,000000
522980,000000	2408,279106	1671,621576	-738,594681	3,846362	8,763745	0,875443	-31,078234	-80,866739	0,000000	0,000000	1735502896,023087	0,000000
522981,000000	2407,282591	1669,591293	-739,544630	3,641471	8,493662	0,651926	-31,692907	-83,195046	0,000000	0,000000	1735502896,025087	0,000000
522982,000000	2405,475825	1666,592434	-740,820542	3,688037	8,512288	0,456348	-31,599775	-82,310289	0,000000	0,000000	1735502896,027087	0,000000
522983,000000	2404,646948	1664,403826	-742,236152	3,715977	8,614734	0,577420	-31,506643	-81,826001	0,000000	0,000000	1735502896,029087	0,000000
522984,000000	2405,652776	1664,347947	-743,251294	3,688037	8,642673	0,754371	-31,553209	-81,183389	0,000000	0,000000	1735502896,031087	0,000000
522985,000000	2407,375723	1666,070893	-743,269920	3,827736	8,735806	0,894070	-31,404197	-79,926103	0,000000	0,000000	1735502896,033087	0,000000
522986,000000	2409,769222	1669,367775	-742,319971	5,066395	9,499490	1,043081	-31,497329	-83,157793	0,000000	0,000000	1735502896,035087	0,000000
522987,000000	2412,777394	1673,325896	-741,323456	4,321337	9,126961	1,192093	-30,957162	-82,449988	0,000000	0,000000	1735502896,037087	0,000000
522988,000000	2414,174378	1675,579697	-740,541145	4,051253	8,903444	1,080334	-31,199306	-82,431361	0,000000	0,000000	1735502896,039087	0,000000
522989,000000	2414,155751	1675,272360	-740,755349	3,939494	8,605421	0,875443	-32,018870	-80,633909	0,000000	0,000000	1735502896,041087	0,000000
522990,000000	2413,801849	1674,490049	-741,109252	3,874302	8,437783	0,940636	-32,074749	-81,760809	0,000000	0,000000	1735502896,043087	0,000000
522991,000000	2412,563190	1672,822982	-741,584226	3,818423	8,475035	0,614673	-31,795353	-80,959871	0,000000	0,000000	1735502896,044087	0,000000
522992,000000	2410,793677	1670,187339	-742,450356	3,576279	8,344650	0,521541	-31,553209	-82,058832	0,000000	0,000000	1735502896,046087	0,000000
522993,000000	2409,657463	1667,905599	-743,540004	3,632158	8,251518	0,447035	-31,897798	-81,034377	0,000000	0,000000	1735502896,048087	0,000000
522994,000000	2409,974113	1667,477190	-744,452700	3,678724	8,419156	0,605360	-31,432137	-81,034377	0,000000	0,000000	1735502896,050087	0,000000
522995,000000	2411,128953	1668,669283	-744,387507	3,939494	8,642673	0,912696	-31,162053	-82,077459	0,000000	0,000000	1735502896,052087	0,000000
522996,000000	2413,447946	1671,491191	-743,791461	4,163012	8,940697	1,145527	-31,255186	-82,515180	0,000000	0,000000	1735502896,054087	0,000000
522997,000000	2416,335046	1675,505191	-742,655247	4,265457	8,912757	1,285225	-30,957162	-82,254410	0,000000	0,000000	1735502896,056087	0,000000
522998,000000	2418,067306	1678,336412	-741,714612	4,218891	8,884817	1,108274	-30,985102	-79,926103	0,000000	0,000000	1735502896,058087	0,000000
522999,000000	2417,862415	1678,075641	-741,630793	4,125759	8,745119	0,866130	-31,376258	-80,233440	0,000000	0,000000	1735502896,060087	0,000000
523000,000000	2417,154610	1677,414402	-741,640106	3,939494	8,726493	0,698492	-31,525269	-80,103055	0,000000	0,000000	1735502896,062087	0,000000
523001,000000	2416,176721	1675,952226	-742,077827	3,827736	8,521602	0,651926	-31,786039	-80,978498	0,000000	0,000000	1735502896,064087	0,000000
523002,000000	2413,978800	1672,981307	-742,971897	3,706664	8,335337	0,614673	-32,009557	-82,449988	0,000000	0,000000	1735502896,066087	0,000000
523003,000000	2412,218601	1670,280471	-743,931159	3,734604	8,102506	0,596046	-31,394884	-82,673505	0,000000	0,000000	1735502896,068087	0,000000
523004,000000	2412,041649	1669,041812	-744,769350	3,725290	8,363277	0,605360	-31,525269	-82,049519	0,000000	0,000000	1735502896,070087	0,000000
523005,000000	2412,758768	1669,917256	-744,648278	3,911555	8,642673	0,875443	-31,478703	-81,183389	0,000000	0,000000	1735502896,072087	0,000000
523006,000000	2414,034680	1672,115177	-743,884593	4,200265	8,828938	0,959262	-31,171367	-81,509352	0,000000	0,000000	1735502896,074087	0,000000
523007,000000	2416,698262	1676,045358	-742,590055	4,302710	9,015203	1,173466	-31,143427	-81,947073	0,000000	0,000000	1735502896,076087	0,000000
523008,000000	2418,858930	1679,258421	-741,472468	4,088506	8,856878	1,024455	-31,152740	-81,667677	0,000000	0,000000	1735502896,078087	0,000000
523009,000000	2418,579534	1679,603010	-740,922987	4,004687	8,502975	0,838190	-31,385571	-80,559403	0,000000	0,000000	1735502896,080087	0,000000
523010,000000	2417,732030	1678,746194	-740,895048	3,892928	8,558854	1,015142	-31,422824	-81,947073	0,000000	0,000000	1735502896,082087	0,000000
523011,000000	2416,307107	1677,256078	-740,811229	2,980232	8,763745	0,726432	-31,879172	-82,068145	0,000000	0,000000	1735502896,084087	0,000000
523012,000000	2413,410693	1674,368978	-741,044059	3,650784	8,549541	0,419095	-31,702220	-80,568716	0,000000	0,000000	1735502896,086087	0,000000
523013,000000	2410,802990	1670,839265	-741,854310	4,358590	8,782372	0,456348	-32,167882	-81,425533	0,000000	0,000000	1735502896,087087	0,000000
523014,000000	2409,191802	1668,594778	-742,403790	4,060566	8,447096	0,540167	-31,897798	-80,633909	0,000000	0,000000	1735502896,089087	0,000000
523015,000000	2409,089357	1668,883488	-742,040575	3,781170	8,298084	0,717118	-31,450763	-81,332400	0,000000	0,000000	1735502896,091087	0,000000
523016,000000	2409,731969	1670,615748	-740,978867	4,014000	8,661300	0,894070	-31,106174	-81,611797	0,000000	0,000000	1735502896,093087	0,000000
523017,000000	2411,566675	1673,754305	-739,665702	3,995374	8,922070	1,108274	-30,817464	-78,687444	0,000000	0,000000	1735502896,095087	0,000000
523018,000000	2413,038164	1676,771790	-738,007948	2,933666	8,968636	1,164153	-31,143427	-81,276521	0,000000	0,000000	1735502896,097087	0,000000
523019,000000	2412,758768	1677,758992	-736,890361	1,816079	9,099022	0,922009	-31,590462	-80,959871	0,000000	0,000000	1735502896,099087	0,000000
523020,000000	2411,548048	1676,641405	-736,825168	3,231689	8,624047	0,745058	-31,441450	-80,848113	0,000000	0,000000	1735502896,101087	0,000000
523021,000000	2409,843728	1675,188541	-736,610964	3,706664	8,437783	0,707805	-31,469390	-80,708414	0,000000	0,000000	1735502896,103087	0,000000
523022,000000	2407,059073	1672,357321	-736,610964	3,594905	8,260831	0,391155	-31,488016	-81,462786	0,000000	0,000000	1735502896,105087	0,000000
523023,000000	2404,032275	1668,650657	-737,393275	3,613532	8,400530	0,391155	-31,664968	-80,317259	0,000000	0,000000	1735502896,107087	0,000000
523024,000000	2401,787788	1665,651798	-738,166273	3,548339	8,475035	0,456348	-31,869859	-82,058832	0,000000	0,000000	1735502896,109087	0,000000
523025,000000	2401,489764	1665,279269	-738,156959	3,688037	8,689240	0,670552	-31,767413	-81,555918	0,000000	0,000000	1735502896,111087	0,000000
523026,000000	2402,160317	1666,499302	-737,560913	3,846362	8,614734	0,838190	-31,236559	-80,307946	0,000000	0,000000	1735502896,113087	0,000000
523027,000000	2403,846011	1669,405028	-736,359507	4,163012	8,800998	1,043081	-31,189993	-82,310289	0,000000	0,000000	1735502896,115087	0,000000
523028,000000	2405,876294	1672,683284	-735,111535	4,218891	8,894131	1,145527	-30,770898	-82,766637	0,000000	0,000000	1735502896,117087	0,000000
523029,000000	2406,174317	1673,894003	-734,170899	4,107133	8,689240	0,940636	-31,003729	-81,481412	0,000000	0,000000	1735502896,119087	0,000000
523030,000000	2405,336127	1672,785729	-734,673813	4,144385	8,642673	0,717118	-31,059608	-81,025064	0,000000	0,000000	1735502896,121087	0,000000
523031,000000	2404,507250	1671,398059	-735,009089	3,855675	8,381903	0,707805	-31,525269	-80,363825	0,000000	0,000000	1735502896,123087	0,000000
523032,000000	2402,355894	1668,902114	-735,428184	3,427267	8,344650	0,419095	-31,795353	-80,447644	0,000000	0,000000	1735502896,125087	0,000000
523033,000000	2399,580553	1665,372401	-736,024231	2,421439	8,558854	0,353903	-31,823292	-81,686303	0,000000	0,000000	1735502896,127087	0,000000
523034,000000	2397,391945	1662,168652	-736,974180	2,617016	8,698553	0,325963	-31,497329	-78,929588	0,000000	0,000000	1735502896,128087	0,000000
523035,000000	2396,749333	1660,985872	-737,402588	2,980232	7,562339	0,335276	-31,385571	-82,477927	0,000000	0,000000	1735502896,130087	0,000000
523036,000000	2397,373319	1662,252471	-736,899674	3,445894	8,763745	0,838190	-31,506643	-81,202015	0,000000	0,000000	1735502896,132087	0,000000
523037,000000	2399,422228	1664,953306	-736,089423	0,158325	8,521602	0,959262	-30,938536	-80,885366	0,000000	0,000000	1735502896,134087	0,000000
523038,000000	2401,946113	1668,920740	-734,925270	2,570450	8,828938	1,024455	-30,761585	-81,434846	0,000000	0,000000	1735502896,136087	0,000000
523039,000000	2403,194085	1671,230420	-733,891502	3,892928	8,838251	0,875443	-31,087548	-83,129853	0,000000	0,000000	1735502896,138087	0,000000
523040,000000	2402,383834	1670,392230	-733,947381	3,930181	8,782372	0,745058	-31,199306	-81,695616	0,000000	0,000000	1735502896,140087	0,000000
523041,000000	2401,061356	1669,069752	-733,928755	3,576279	8,651987	0,661239	-30,957162	-80,848113	0,000000	0,000000	1735502896,142087	0,000000
523042,000000	2399,496734	1667,402685	-734,096393	3,529713	8,493662	0,530854	-31,124800	-81,853941	0,000000	0,000000	1735502896,144087	0,000000
523043,000000	2397,317439	1664,310694	-734,794885	3,352761	8,251518	0,344589	-31,292439	-82,263723	0,000000	0,000000	1735502896,146087	0,000000
523044,000000	2395,296469	1661,209390	-735,931098	3,362074	8,391216	0,325963	-31,273812	-82,310289	0,000000	0,000000	1735502896,148087	0,000000
523045,000000	2394,746989	1659,961417	-736,555085	3,641471	8,484349	0,409782	-31,255186	-82,626939	0,000000	0,000000	1735502896,150087	0,000000
523046,000000	2395,631745	1660,818234	-736,620277	3,734604	8,381903	0,549480	-31,115487	-81,341714	0,000000	0,000000	1735502896,152087	0,000000
523047,000000	2397,429198	1663,211733	-736,098737	3,911555	8,633360	0,782311	-31,264499	-82,673505	0,000000	0,000000	1735502896,154087	0,000000
523048,000000	2399,785444	1667,011529	-734,692439	4,004687	8,791685	1,154840	-31,115487	-82,086772	0,000000	0,000000	1735502896,156087	0,000000
523049,000000	2401,471138	1669,954509	-733,500347	4,079193	8,810312	1,126900	-31,180680	-81,984326	0,000000	0,000000	1735502896,158087	0,000000
523050,000000	2401,266247	1670,029014	-733,165070	3,688037	8,689240	0,847504	-31,217933	-80,345199	0,000000	0,000000	1735502896,160087	0,000000
523051,000000	2400,865778	1669,377089	-733,379275	3,585592	8,707866	0,819564	-31,227246	-80,307946	0,000000	0,000000	1735502896,162087	0,000000
523052,000000	2400,083467	1668,147743	-733,807683	3,678724	8,642673	0,791624	-31,339005	-80,475584	0,000000	0,000000	1735502896,164087	0,000000
523053,000000	2398,015931	1665,465534	-734,580681	3,399327	8,307397	0,465661	-31,637028	-81,025064	0,000000	0,000000	1735502896,166087	0,000000
523054,000000	2395,771444	1662,103459	-735,586509	3,380701	8,251518	0,353903	-31,422824	-80,782920	0,000000	0,000000	1735502896,168087	0,000000
523055,000000	2394,607291	1660,296693	-736,163929	3,566965	8,558854	0,493601	-31,264499	-81,360340	0,000000	0,000000	1735502896,169087	0,000000
523056,000000	2395,128831	1660,743728	-736,340880	3,697351	8,689240	0,661239	-31,301752	-82,086772	0,000000	0,000000	1735502896,171087	0,000000
523057,000000	2396,469936	1662,559807	-735,837966	3,762543	8,791685	0,922009	-31,208619	-82,226470	0,000000	0,000000	1735502896,173087	0,000000
523058,000000	2398,779616	1665,893942	-734,701753	3,986061	8,968636	1,136214	-30,994415	-81,425533	0,000000	0,000000	1735502896,175087	0,000000
523059,000000	2400,781959	1669,200137	-733,444467	3,855675	8,838251	1,126900	-30,994415	-80,652535	0,000000	0,000000	1735502896,177087	0,000000
523060,000000	2400,903031	1670,010388	-732,801855	3,762543	8,819625	0,940636	-31,283125	-82,477927	0,000000	0,000000	1735502896,179087	0,000000
523061,000000	2399,878576	1668,753102	-733,053312	3,557652	8,810312	0,791624	-31,478703	-81,788749	0,000000	0,000000	1735502896,181087	0,000000
523062,000000	2398,854122	1666,974276	-733,807683	2,430752	8,763745	0,661239	-31,329691	-81,937760	0,000000	0,000000	1735502896,183087	0,000000
523063,000000	2397,354692	1664,618030	-734,608620	3,399327	8,428469	0,568107	-31,925738	-81,909820	0,000000	0,000000	1735502896,185087	0,000000
523064,000000	2395,333722	1661,702991	-735,586509	3,352761	8,270144	0,419095	-32,009557	-82,058832	0,000000	0,000000	1735502896,187087	0,000000
523065,000000	2394,318581	1659,700647	-736,443326	2,905726	8,381903	0,288710	-31,748787	-82,748011	0,000000	0,000000	1735502896,189087	0,000000
523066,000000	2394,588664	1659,886912	-736,601651	3,520399	8,586794	0,679865	-31,627715	-81,453472	0,000000	0,000000	1735502896,191087	0,000000
523067,000000	2395,957708	1661,544666	-736,359507	3,697351	8,819625	0,884756	-31,394884	-82,952902	0,000000	0,000000	1735502896,193087	0,000000
523068,000000	2398,351207	1664,888114	-735,344365	3,110617	8,838251	1,098961	-31,329691	-81,127509	0,000000	0,000000	1735502896,195087	0,000000
523069,000000	2400,428057	1668,632030	-733,882189	3,809109	8,922070	1,015142	-31,245872	-80,233440	0,000000	0,000000	1735502896,197087	0,000000
523070,000000	2401,452512	1670,131460	-733,006746	4,330650	9,452924	0,968575	-31,515956	-80,065802	0,000000	0,000000	1735502896,199087	0,000000
523071,000000	2400,660887	1669,498160	-732,960179	4,405156	8,912757	0,838190	-30,994415	-80,494210	0,000000	0,000000	1735502896,201087	0,000000
523072,000000	2399,776131	1668,455079	-733,165070	3,883615	9,164214	0,679865	-31,227246	-80,056489	0,000000	0,000000	1735502896,203087	0,000000
523073,000000	2398,556098	1666,797325	-733,714551	3,529713	8,484349	0,465661	-31,683594	-79,870224	0,000000	0,000000	1735502896,205087	0,000000
523074,000000	2395,985648	1663,444564	-734,478235	3,306195	8,353963	0,474975	-31,655654	-81,202015	0,000000	0,000000	1735502896,207087	0,000000
523075,000000	2394,253388	1660,520211	-735,567883	3,296882	8,353963	0,568107	-31,962991	-81,788749	0,000000	0,000000	1735502896,209087	0,000000
523076,000000	2394,467592	1659,728587	-736,461952	2,784654	8,521602	0,661239	-31,730160	-81,704929	0,000000	0,000000	1735502896,211087	0,000000
523077,000000	2395,436168	1661,237329	-736,173242	3,790483	8,521602	0,810251	-31,031668	-80,391765	0,000000	0,000000	1735502896,212087	0,000000
523078,000000	2398,034558	1664,338633	-735,670328	4,051253	8,828938	0,847504	-31,339005	-82,673505	0,000000	0,000000	1735502896,214087	0,000000
523079,000000	2400,819212	1668,045297	-734,673813	3,902242	8,838251	1,061708	-30,985102	-83,092600	0,000000	0,000000	1735502896,216087	0,000000
523080,000000	2402,234823	1670,401543	-733,770430	3,837049	8,745119	0,875443	-31,162053	-81,444159	0,000000	0,000000	1735502896,218087	0,000000
523081,000000	2401,610836	1669,758931	-733,751804	3,688037	8,419156	0,754371	-31,366944	-81,146136	0,000000	0,000000	1735502896,220087	0,000000
523082,000000	2401,098609	1668,948680	-734,059140	3,715977	8,670613	0,623986	-31,236559	-80,857426	0,000000	0,000000	1735502896,222087	0,000000
523083,000000	2400,018275	1667,439938	-734,450296	3,594905	8,353963	0,558794	-31,664968	-81,975013	0,000000	0,000000	1735502896,224087	0,000000
523084,000000	2397,643402	1664,282754	-735,213980	3,473833	8,335337	0,298023	-31,488016	-81,388280	0,000000	0,000000	1735502896,226087	0,000000
523085,000000	2395,585179	1661,032438	-736,331567	3,380701	8,214265	0,186265	-31,320378	-82,449988	0,000000	0,000000	1735502896,228087	0,000000
523086,000000	2394,858748	1659,607515	-737,244263	3,492460	8,326024	0,474975	-31,180680	-81,919134	0,000000	0,000000	1735502896,230087	0,000000
523087,000000	2395,659685	1660,585403	-737,030059	3,566965	8,465722	0,726432	-31,199306	-83,399937	0,000000	0,000000	1735502896,232087	0,000000
523088,000000	2397,708595	1663,397998	-736,229122	3,818423	8,894131	0,884756	-31,199306	-81,276521	0,000000	0,000000	1735502896,234087	0,000000
523089,000000	2400,232479	1667,067409	-734,915957	3,930181	8,950010	0,949949	-30,705705	-82,040206	0,000000	0,000000	1735502896,236087	0,000000
523090,000000	2402,206883	1669,749618	-734,282658	3,892928	8,894131	0,996515	-30,901283	-81,229955	0,000000	0,000000	1735502896,238087	0,000000
523091,000000	2402,151003	1670,038328	-733,984634	3,725290	8,642673	0,689179	-31,422824	-82,673505	0,000000	0,000000	1735502896,240087	0,000000
523092,000000	2401,275560	1669,051126	-734,198838	3,706664	8,633360	0,698492	-31,208619	-82,999468	0,000000	0,000000	1735502896,242087	0,000000
523093,000000	2400,074154	1667,411998	-734,552741	3,576279	8,549541	0,679865	-31,385571	-82,598999	0,000000	0,000000	1735502896,244087	0,000000
523094,000000	2397,904173	1664,524898	-735,251233	3,464520	8,391216	0,502914	-31,720847	-82,682818	0,000000	0,000000	1735502896,246087	0,000000
523095,000000	2395,994961	1661,432907	-736,443326	3,343448	8,409843	0,521541	-31,953678	-81,332400	0,000000	0,000000	1735502896,248087	0,000000
523096,000000	2395,547926	1660,138369	-737,365335	3,390014	8,484349	0,605360	-31,683594	-81,816688	0,000000	0,000000	1735502896,250087	0,000000
523097,000000	2396,292984	1661,069691	-737,123191	3,539026	8,670613	0,838190	-31,553209	-82,645565	0,000000	0,000000	1735502896,252087	0,000000
523098,000000	2397,932112	1663,165167	-736,694783	3,781170	8,838251	0,894070	-31,469390	-82,794577	0,000000	0,000000	1735502896,253087	0,000000
523099,000000	2400,483936	1666,806638	-735,605136	4,032627	8,754432	1,108274	-31,096861	-82,189217	0,000000	0,000000	1735502896,255087	0,000000
523100,000000	2402,327955	1669,954509	-734,338537	3,930181	8,773059	0,940636	-31,087548	-81,984326	0,000000	0,000000	1735502896,257087	0,000000
523101,000000	2402,244136	1670,243219	-733,807683	3,473833	8,773059	0,866130	-31,394884	-83,018094	0,000000	0,000000	1735502896,259087	0,000000
523102,000000	2401,228994	1669,144258	-733,956695	3,548339	8,484349	0,828877	-31,869859	-82,226470	0,000000	0,000000	1735502896,261087	0,000000
523103,000000	2399,822697	1667,682081	-734,142959	3,557652	8,502975	0,698492	-32,000244	-80,447644	0,000000	0,000000	1735502896,263087	0,000000
523104,000000	2398,062497	1665,093005	-734,832138	3,278255	8,465722	0,530854	-31,758100	-81,975013	0,000000	0,000000	1735502896,265087	0,000000
523105,000000	2395,799384	1662,028953	-735,651702	3,362074	8,475035	0,372529	-32,084063	-81,965700	0,000000	0,000000	1735502896,267087	0,000000
523106,000000	2394,663170	1659,831032	-736,694783	3,036112	8,400530	0,409782	-31,935051	-82,021579	0,000000	0,000000	1735502896,269087	0,000000
523107,000000	2395,641059	1660,166308	-737,318769	2,933666	8,428469	0,605360	-31,571835	-80,708414	0,000000	0,000000	1735502896,271087	0,000000
523108,000000	2397,596836	1662,215218	-737,281516	2,635643	8,558854	0,968575	-31,134114	-79,944730	0,000000	0,000000	1735502896,273087	0,000000
523109,000000	2400,083467	1665,949821	-736,033544	3,958121	9,024516	1,089647	-31,124800	-80,699101	0,000000	0,000000	1735502896,275087	0,000000
523110,000000	2402,290702	1669,554040	-734,571368	4,041940	9,015203	1,015142	-30,966476	-81,295148	0,000000	0,000000	1735502896,277087	0,000000
523111,000000	2402,719110	1670,662314	-733,919442	3,734604	8,707866	0,894070	-31,003729	-81,267208	0,000000	0,000000	1735502896,279087	0,000000
523112,000000	2402,020618	1669,880003	-734,142959	3,725290	8,679926	0,568107	-30,677766	-81,984326	0,000000	0,000000	1735502896,281087	0,000000
523113,000000	2400,754020	1668,361947	-734,254718	3,799796	8,679926	0,586733	-30,994415	-81,686303	0,000000	0,000000	1735502896,283087	0,000000
523114,000000	2399,133518	1666,340977	-734,729692	3,511086	8,353963	0,493601	-31,655654	-82,030892	0,000000	0,000000	1735502896,285087	0,000000
523115,000000	2397,019416	1663,491130	-735,521317	3,352761	8,298084	0,298023	-31,860545	-82,608312	0,000000	0,000000	1735502896,287087	0,000000
523116,000000	2395,212650	1660,743728	-736,294314	3,380701	8,288771	0,260770	-31,618401	-80,205500	0,000000	0,000000	1735502896,289087	0,000000
523117,000000	2395,166084	1660,389826	-736,592337	3,539026	8,363277	0,651926	-31,385571	-81,798062	0,000000	0,000000	1735502896,291087	0,000000
523118,000000	2396,497875	1662,001014	-736,378133	3,715977	8,745119	0,679865	-30,966476	-81,518665	0,000000	0,000000	1735502896,293087	0,000000
523119,000000	2398,444340	1664,636657	-735,688955	3,986061	8,819625	0,894070	-31,013042	-81,034377	0,000000	0,000000	1735502896,294087	0,000000
523120,000000	2401,052043	1668,622717	-734,431669	3,855675	9,071082	1,015142	-31,003729	-82,971528	0,000000	0,000000	1735502896,296087	0,000000
523121,000000	2402,458340	1670,457423	-733,761117	3,939494	9,387732	1,154840	-31,376258	-82,645565	0,000000	0,000000	1735502896,298087	0,000000
523122,000000	2401,871607	1669,777557	-733,798370	2,039596	9,154901	0,754371	-31,683594	-81,071630	0,000000	0,000000	1735502896,300087	0,000000
523123,000000	2400,763333	1668,818295	-733,723864	3,958121	9,061769	0,698492	-31,422824	-82,086772	0,000000	0,000000	1735502896,302087	0,000000
523124,000000	2399,329096	1667,086035	-734,096393	3,539026	8,521602	0,521541	-31,664968	-83,940104	0,000000	0,000000	1735502896,304087	0,000000
523125,000000	2397,354692	1664,087176	-735,111535	3,464520	8,465722	0,465661	-31,786039	-81,835315	0,000000	0,000000	1735502896,306087	0,000000
523126,000000	2395,324409	1661,302522	-735,949725	3,455207	8,447096	0,419095	-31,823292	-81,053004	0,000000	0,000000	1735502896,308087	0,000000
523127,000000	2395,184711	1660,510898	-736,499205	3,501773	8,642673	0,623986	-31,916425	-81,965700	0,000000	0,000000	1735502896,310087	0,000000
523128,000000	2396,078780	1661,572605	-736,424699	3,660098	8,484349	0,838190	-31,078234	-80,894679	0,000000	0,000000	1735502896,312087	0,000000
523129,000000	2397,969365	1663,900912	-735,903159	3,995374	8,679926	1,015142	-31,050295	-81,248581	0,000000	0,000000	1735502896,314087	0,000000
523130,000000	2400,763333	1668,008044	-734,655187	4,004687	9,024516	1,154840	-31,003729	-81,425533	0,000000	0,000000	1735502896,316087	0,000000
523131,000000	2402,467653	1670,690253	-733,630732	3,827736	8,866191	1,061708	-31,236559	-81,267208	0,000000	0,000000	1735502896,318087	0,000000
523132,000000	2401,843667	1670,513302	-733,286142	3,734604	8,670613	0,810251	-31,404197	-82,114711	0,000000	0,000000	1735502896,320087	0,000000
523133,000000	2400,716767	1669,442281	-733,109191	3,622845	8,558854	0,782311	-31,115487	-81,304461	0,000000	0,000000	1735502896,322087	0,000000
523134,000000	2399,384975	1667,672768	-733,500347	3,529713	8,512288	0,642613	-31,553209	-81,779435	0,000000	0,000000	1735502896,324087	0,000000
523135,000000	2397,168428	1664,878801	-734,180212	3,287569	8,298084	0,484288	-31,832606	-81,593171	0,000000	0,000000	1735502896,326087	0,000000
523136,000000	2394,905314	1661,591232	-735,148787	3,352761	8,316711	0,484288	-31,627715	-82,766637	0,000000	0,000000	1735502896,328087	0,000000
523137,000000	2394,327894	1659,924164	-736,285001	3,594905	8,689240	0,642613	-31,599775	-83,493069	0,000000	0,000000	1735502896,330087	0,000000
523138,000000	2395,473421	1661,013812	-736,368820	3,753230	8,596107	0,838190	-31,217933	-82,403421	0,000000	0,000000	1735502896,332087	0,000000
523139,000000	2397,028729	1663,137227	-735,707581	3,818423	8,763745	1,061708	-31,245872	-81,453472	0,000000	0,000000	1735502896,334087	0,000000
523140,000000	2399,552613	1666,918397	-734,617934	3,846362	8,903444	1,108274	-30,919909	-79,786405	0,000000	0,000000	1735502896,336087	0,000000
523141,000000	2401,722595	1670,140773	-733,491033	4,163012	8,977950	1,033768	-31,031668	-80,447644	0,000000	0,000000	1735502896,337087	0,000000
523142,000000	2401,648089	1670,438796	-733,109191	3,734604	8,856878	0,745058	-30,919909	-81,593171	0,000000	0,000000	1735502896,339087	0,000000
523143,000000	2400,772646	1669,134945	-733,491033	3,669411	8,847564	0,605360	-31,199306	-80,624595	0,000000	0,000000	1735502896,341087	0,000000
523144,000000	2399,738878	1667,812467	-733,723864	3,520399	8,717179	0,707805	-31,068921	-80,736354	0,000000	0,000000	1735502896,343087	0,000000
523145,000000	2397,773787	1665,381715	-734,189525	3,315508	8,512288	0,502914	-31,599775	-81,090257	0,000000	0,000000	1735502896,345087	0,000000
523146,000000	2395,464107	1662,215218	-735,074282	3,231689	8,689240	0,642613	-31,869859	-80,950558	0,000000	0,000000	1735502896,347087	0,000000
523147,000000	2394,188195	1660,250127	-735,893846	3,371388	8,558854	0,558794	-31,748787	-82,626939	0,000000	0,000000	1735502896,349087	0,000000
523148,000000	2395,175397	1660,790294	-736,378133	3,660098	8,698553	0,782311	-31,469390	-82,077459	0,000000	0,000000	1735502896,351087	0,000000
523149,000000	2396,292984	1662,317663	-735,875219	4,228204	8,698553	0,810251	-31,283125	-84,303319	0,000000	0,000000	1735502896,353087	0,000000
523150,000000	2398,351207	1665,567979	-734,729692	3,939494	8,977950	1,117587	-31,050295	-81,891194	0,000000	0,000000	1735502896,355087	0,000000
523151,000000	2400,940284	1669,321209	-733,453780	3,352761	9,285286	1,303852	-31,031668	-80,559403	0,000000	0,000000	1735502896,357087	0,000000
523152,000000	2401,573583	1670,327038	-733,006746	2,756715	8,838251	1,033768	-31,515956	-81,080943	0,000000	0,000000	1735502896,359087	0,000000
523153,000000	2400,940284	1669,917256	-732,978806	4,069880	8,922070	0,726432	-31,497329	-83,120540	0,000000	0,000000	1735502896,361087	0,000000
523154,000000	2400,390804	1668,753102	-733,463094	4,563481	9,285286	0,745058	-31,804666	-83,288178	0,000000	0,000000	1735502896,363087	0,000000
523155,000000	2398,556098	1666,471362	-734,021887	3,492460	8,316711	0,502914	-31,404197	-82,068145	0,000000	0,000000	1735502896,365087	0,000000
523156,000000	2396,209165	1663,183793	-734,869391	3,362074	8,307397	0,428408	-31,702220	-81,313774	0,000000	0,000000	1735502896,367087	0,000000
523157,000000	2394,691110	1660,874113	-735,707581	3,483146	8,298084	0,447035	-31,283125	-82,030892	0,000000	0,000000	1735502896,369087	0,000000
523158,000000	2395,156771	1660,827547	-736,042857	3,473833	8,512288	0,707805	-31,264499	-82,636252	0,000000	0,000000	1735502896,371087	0,000000
523159,000000	2396,469936	1662,261784	-735,986978	3,650784	8,624047	0,940636	-31,264499	-80,969185	0,000000	0,000000	1735502896,373087	0,000000
523160,000000	2398,677170	1665,195450	-735,400245	3,781170	8,903444	1,294538	-30,742958	-83,232298	0,000000	0,000000	1735502896,375087	0,000000
523161,000000	2401,173115	1668,725163	-734,347850	3,939494	9,005889	1,192093	-30,845404	-82,580373	0,000000	0,000000	1735502896,377087	0,000000
523162,000000	2402,197570	1670,476049	-733,500347	3,604218	8,745119	1,043081	-31,311065	-82,030892	0,000000	0,000000	1735502896,378087	0,000000
523163,000000	2401,256934	1669,749618	-733,360648	3,324822	8,484349	0,940636	-31,217933	-82,263723	0,000000	0,000000	1735502896,380087	0,000000
523164,000000	2400,176600	1668,957993	-733,137131	3,473833	8,614734	0,977889	-31,339005	-81,742182	0,000000	0,000000	1735502896,382087	0,000000
523165,000000	2398,518845	1667,169854	-733,267516	3,445894	8,475035	0,745058	-31,637028	-81,155449	0,000000	0,000000	1735502896,384087	0,000000
523166,000000	2396,143973	1663,845032	-734,198838	3,334135	8,298084	0,484288	-32,065436	-81,611797	0,000000	0,000000	1735502896,386087	0,000000
523167,000000	2394,318581	1660,836861	-735,344365	4,675239	8,735806	0,316650	-32,130629	-82,561746	0,000000	0,000000	1735502896,388087	0,000000
523168,000000	2394,439653	1660,306007	-736,042857	3,566965	8,428469	0,623986	-31,581149	-81,975013	0,000000	0,000000	1735502896,390087	0,000000
523169,000000	2395,594493	1661,842689	-735,558569	3,790483	8,596107	0,931323	-31,320378	-79,665333	0,000000	0,000000	1735502896,392087	0,000000
523170,000000	2397,419885	1664,273441	-734,971836	3,613532	8,977950	1,154840	-31,134114	-80,838799	0,000000	0,000000	1735502896,394087	0,000000
523171,000000	2399,990335	1667,570323	-734,105706	3,166497	9,462237	1,378357	-31,180680	-81,500039	0,000000	0,000000	1735502896,396087	0,000000
523172,000000	2401,359379	1670,336351	-732,867047	2,896413	8,484349	1,089647	-31,134114	-82,021579	0,000000	0,000000	1735502896,398087	0,000000
523173,000000	2401,098609	1670,531929	-732,513145	3,613532	8,549541	0,968575	-31,283125	-81,164762	0,000000	0,000000	1735502896,400087	0,000000
523174,000000	2400,213853	1669,414341	-732,718036	3,529713	8,475035	1,033768	-31,823292	-82,263723	0,000000	0,000000	1735502896,402087	0,000000
523175,000000	2398,854122	1667,654142	-733,155757	3,352761	8,363277	0,782311	-31,394884	-81,267208	0,000000	0,000000	1735502896,404087	0,000000
523176,000000	2396,814525	1664,850861	-733,882189	3,445894	8,195639	0,502914	-32,270327	-83,437189	0,000000	0,000000	1735502896,406087	0,000000
523177,000000	2395,110205	1662,299037	-734,822825	3,334135	8,018687	0,474975	-32,102689	-80,922619	0,000000	0,000000	1735502896,408087	0,000000
523178,000000	2394,523472	1660,846174	-735,577196	3,380701	8,335337	0,642613	-32,307580	-82,999468	0,000000	0,000000	1735502896,410087	0,000000
523179,000000	2395,203337	1661,712304	-735,400245	3,417954	8,353963	0,847504	-31,776726	-81,816688	0,000000	0,000000	1735502896,412087	0,000000
523180,000000	2396,712080	1663,649455	-734,794885	3,706664	8,568168	1,210719	-31,292439	-81,844628	0,000000	0,000000	1735502896,414087	0,000000
523181,000000	2399,208024	1667,514443	-733,491033	3,902242	8,726493	1,136214	-31,208619	-80,429018	0,000000	0,000000	1735502896,416087	0,000000
523182,000000	2400,958911	1670,643687	-732,326880	4,014000	8,726493	1,210719	-31,366944	-82,012266	0,000000	0,000000	1735502896,418087	0,000000
523183,000000	2400,679514	1670,438796	-732,094049	3,688037	8,419156	0,894070	-31,702220	-83,148479	0,000000	0,000000	1735502896,419087	0,000000
523184,000000	2400,362864	1669,684425	-732,624903	3,548339	8,596107	0,754371	-31,366944	-82,626939	0,000000	0,000000	1735502896,421087	0,000000
523185,000000	2399,552613	1668,361947	-733,109191	3,390014	8,502975	0,726432	-31,478703	-80,531463	0,000000	0,000000	1735502896,423087	0,000000
523186,000000	2397,522330	1665,847376	-733,528286	3,352761	8,335337	0,670552	-32,018870	-81,257895	0,000000	0,000000	1735502896,425087	0,000000
523187,000000	2395,445481	1662,597060	-734,766945	3,306195	8,177012	0,633299	-31,981617	-81,248581	0,000000	0,000000	1735502896,427087	0,000000
523188,000000	2394,402400	1660,417765	-735,903159	3,371388	8,270144	0,772998	-31,860545	-80,997124	0,000000	0,000000	1735502896,429087	0,000000
523189,000000	2394,812182	1660,715789	-735,996291	3,585592	8,326024	0,800937	-31,478703	-80,093741	0,000000	0,000000	1735502896,431087	0,000000
523190,000000	2396,311611	1662,708819	-735,586509	3,781170	8,670613	1,015142	-31,422824	-81,555918	0,000000	0,000000	1735502896,433087	0,000000
523191,000000	2398,807555	1666,415483	-734,310597	4,032627	8,838251	1,164153	-31,385571	-81,006438	0,000000	0,000000	1735502896,435087	0,000000
523192,000000	2400,921658	1669,917256	-732,773915	3,986061	8,735806	1,285225	-31,543896	-82,217157	0,000000	0,000000	1735502896,437087	0,000000
523193,000000	2401,480451	1670,876518	-732,485205	4,209578	9,136274	1,229346	-31,907111	-82,235783	0,000000	0,000000	1735502896,439087	0,000000
523194,000000	2401,145175	1670,308411	-732,550398	3,948808	8,372590	0,987202	-32,316893	-80,745667	0,000000	0,000000	1735502896,441087	0,000000
523195,000000	2399,841323	1669,330522	-732,429326	3,781170	8,344650	0,866130	-32,270327	-80,429018	0,000000	0,000000	1735502896,443087	0,000000
523196,000000	2398,509532	1667,244360	-733,034685	3,101304	8,391216	0,614673	-32,000244	-80,429018	0,000000	0,000000	1735502896,445087	0,000000
523197,000000	2396,441996	1664,282754	-734,012574	3,278255	8,093193	0,614673	-31,916425	-81,742182	0,000000	0,000000	1735502896,447087	0,000000
523198,000000	2395,128831	1661,814749	-735,018402	2,803281	8,437783	0,847504	-32,130629	-82,887709	0,000000	0,000000	1735502896,449087	0,000000
523199,000000	2395,035699	1661,432907	-735,474750	3,678724	8,335337	0,800937	-32,251701	-82,124025	0,000000	0,000000	1735502896,451087	0,000000
523200,000000	2395,883203	1662,774011	-735,102221	3,846362	8,558854	0,996515	-31,525269	-80,829486	0,000000	0,000000	1735502896,453087	0,000000
523201,000000	2398,053184	1665,679738	-734,291971	3,790483	8,828938	1,220033	-31,227246	-82,310289	0,000000	0,000000	1735502896,455087	0,000000
523202,000000	2399,915829	1668,790355	-732,960179	3,911555	8,875504	1,303852	-31,339005	-82,496554	0,000000	0,000000	1735502896,457087	0,000000
523203,000000	2400,847152	1670,597121	-732,205808	3,688037	8,530915	1,024455	-31,217933	-81,807375	0,000000	0,000000	1735502896,459087	0,000000
523204,000000	2400,409430	1670,252532	-731,991604	3,743917	8,521602	1,005828	-31,460077	-83,101913	0,000000	0,000000	1735502896,461087	0,000000
523205,000000	2399,953082	1669,330522	-732,475892	3,846362	8,353963	0,838190	-31,730160	-82,543120	0,000000	0,000000	1735502896,462087	0,000000
523206,000000	2398,602664	1667,505130	-732,801855	3,613532	8,307397	0,707805	-31,962991	-81,928447	0,000000	0,000000	1735502896,464087	0,000000
523207,000000	2396,004274	1664,208248	-733,621418	3,548339	8,214265	0,633299	-31,664968	-82,440674	0,000000	0,000000	1735502896,466087	0,000000
523208,000000	2394,542098	1661,516726	-734,804198	3,501773	8,242205	0,698492	-31,674281	-82,049519	0,000000	0,000000	1735502896,468087	0,000000
523209,000000	2394,383773	1660,995185	-735,297799	3,660098	8,353963	0,782311	-31,599775	-83,334744	0,000000	0,000000	1735502896,470087	0,000000
523210,000000	2394,923940	1662,289724	-734,552741	3,790483	8,465722	0,838190	-31,609088	-80,931932	0,000000	0,000000	1735502896,472087	0,000000
523211,000000	2397,168428	1664,757729	-734,273344	3,315508	8,838251	1,015142	-31,348318	-80,484897	0,000000	0,000000	1735502896,474087	0,000000
523212,000000	2399,990335	1668,715850	-733,146444	3,045425	8,950010	1,480803	-30,836090	-80,829486	0,000000	0,000000	1735502896,476087	0,000000
523213,000000	2401,471138	1670,951024	-732,224435	1,983717	8,689240	1,303852	-31,255186	-79,935417	0,000000	0,000000	1735502896,478087	0,000000
523214,000000	2401,145175	1670,485362	-732,252374	3,064051	8,055940	0,735745	-31,171367	-82,245097	0,000000	0,000000	1735502896,480087	0,000000
523215,000000	2400,809899	1669,684425	-733,034685	3,231689	8,679926	0,707805	-31,488016	-80,298632	0,000000	0,000000	1735502896,482087	0,000000
523216,000000	2399,347723	1668,082550	-733,202323	3,585592	8,493662	0,689179	-31,441450	-82,077459	0,000000	0,000000	1735502896,484087	0,000000
523217,000000	2397,000790	1665,018499	-733,938068	3,352761	8,428469	0,586733	-31,776726	-82,040206	0,000000	0,000000	1735502896,486087	0,000000
523218,000000	2395,538613	1662,280411	-735,102221	3,324822	8,381903	0,633299	-31,674281	-80,987811	0,000000	0,000000	1735502896,488087	0,000000
523219,000000	2395,063639	1661,162823	-735,893846	3,315508	8,493662	0,689179	-31,767413	-81,127509	0,000000	0,000000	1735502896,490087	0,000000
523220,000000	2395,622432	1661,796123	-735,698268	3,594905	8,512288	0,763685	-31,301752	-81,993639	0,000000	0,000000	1735502896,492087	0,000000
523221,000000	2397,466451	1664,254814	-735,139474	3,762543	8,810312	0,912696	-31,292439	-82,794577	0,000000	0,000000	1735502896,494087	0,000000
523222,000000	2399,841323	1667,868346	-733,975321	3,781170	8,912757	0,987202	-31,199306	-82,207844	0,000000	0,000000	1735502896,496087	0,000000
523223,000000	2401,564270	1670,671627	-732,699409	3,734604	8,838251	1,164153	-30,985102	-81,416219	0,000000	0,000000	1735502896,498087	0,000000
523224,000000	2401,461825	1670,848578	-732,485205	3,445894	8,670613	0,866130	-30,994415	-81,695616	0,000000	0,000000	1735502896,500087	0,000000
523225,000000	2400,642261	1669,907942	-732,783228	3,473833	8,568168	0,856817	-31,329691	-81,881881	0,000000	0,000000	1735502896,502087	0,000000
523226,000000	2399,543300	1668,464392	-732,904300	3,296882	8,558854	0,679865	-31,962991	-80,848113	0,000000	0,000000	1735502896,503087	0,000000
523227,000000	2397,280186	1665,726304	-733,314082	3,147870	8,316711	0,596046	-31,776726	-84,536150	0,000000	0,000000	1735502896,505087	0,000000
523228,000000	2395,138144	1662,718132	-734,291971	3,054738	8,251518	0,353903	-31,609088	-82,598999	0,000000	0,000000	1735502896,507087	0,000000
523229,000000	2394,644544	1661,125571	-735,381618	3,194436	8,419156	0,474975	-31,804666	-81,863254	0,000000	0,000000	1735502896,509087	0,000000
523230,000000	2395,426854	1661,945134	-735,428184	3,660098	8,484349	0,698492	-31,674281	-82,477927	0,000000	0,000000	1735502896,511087	0,000000
523231,000000	2396,795899	1663,742587	-734,990463	3,734604	8,586794	1,052395	-31,739473	-81,993639	0,000000	0,000000	1735502896,513087	0,000000
523232,000000	2399,096265	1667,132601	-733,826309	3,958121	8,959323	1,303852	-31,292439	-81,229955	0,000000	0,000000	1735502896,515087	0,000000
523233,000000	2400,921658	1670,336351	-732,420012	3,986061	8,698553	1,275912	-31,506643	-79,907477	0,000000	0,000000	1735502896,517087	0,000000
523234,000000	2401,340753	1671,295613	-731,972978	3,883615	8,726493	0,856817	-31,329691	-82,636252	0,000000	0,000000	1735502896,519087	0,000000
523235,000000	2400,903031	1670,494676	-732,280314	3,846362	8,782372	0,810251	-31,357631	-82,561746	0,000000	0,000000	1735502896,521087	0,000000
523236,000000	2399,710938	1668,902114	-732,671469	3,669411	8,689240	0,856817	-31,515956	-82,971528	0,000000	0,000000	1735502896,523087	0,000000
523237,000000	2398,025244	1666,415483	-733,509660	3,576279	8,437783	0,596046	-32,046810	-83,353370	0,000000	0,000000	1735502896,525087	0,000000
523238,000000	2395,845950	1663,230360	-734,534115	3,352761	8,326024	0,465661	-32,112002	-80,456957	0,000000	0,000000	1735502896,527087	0,000000
523239,000000	2394,290641	1660,855487	-735,362992	3,408641	8,353963	0,530854	-32,428652	-81,351027	0,000000	0,000000	1735502896,529087	0,000000
523240,000000	2394,467592	1660,967246	-735,418871	3,501773	8,689240	0,642613	-31,795353	-80,419704	0,000000	0,000000	1735502896,531087	0,000000
523241,000000	2395,631745	1662,503928	-735,037029	3,799796	8,894131	0,894070	-31,609088	-79,376623	0,000000	0,000000	1735502896,533087	0,000000
523242,000000	2397,941425	1665,689051	-734,245405	3,762543	8,922070	1,108274	-31,078234	-79,134479	0,000000	0,000000	1735502896,535087	0,000000
523243,000000	2400,390804	1669,386402	-733,006746	4,004687	8,856878	1,145527	-31,646341	-80,345199	0,000000	0,000000	1735502896,537087	0,000000
523244,000000	2401,266247	1670,867205	-732,280314	3,781170	8,838251	0,894070	-31,990930	-81,565231	0,000000	0,000000	1735502896,539087	0,000000
523245,000000	2400,791273	1670,159400	-732,280314	4,051253	8,996576	0,931323	-31,869859	-81,006438	0,000000	0,000000	1735502896,541087	0,000000
523246,000000	2399,748191	1669,172198	-732,345507	3,101304	8,270144	0,847504	-31,711534	-83,129853	0,000000	0,000000	1735502896,543087	0,000000
523247,000000	2398,397774	1667,393371	-732,960179	3,473833	8,391216	0,670552	-32,139942	-82,263723	0,000000	0,000000	1735502896,544087	0,000000
523248,000000	2396,274358	1664,338633	-733,779743	4,004687	8,335337	0,493601	-32,177195	-81,220642	0,000000	0,000000	1735502896,546087	0,000000
523249,000000	2394,644544	1661,637798	-734,822825	2,272427	8,223578	0,484288	-31,432137	-80,019236	0,000000	0,000000	1735502896,548087	0,000000
523250,000000	2394,495532	1661,283895	-734,981149	3,082678	8,530915	0,577420	-31,422824	-81,108883	0,000000	0,000000	1735502896,550087	0,000000
523251,000000	2395,734191	1662,978902	-734,571368	3,641471	8,661300	0,735745	-31,413510	-81,351027	0,000000	0,000000	1735502896,552087	0,000000
523252,000000	2397,960052	1666,219905	-733,537599	3,883615	8,782372	1,089647	-31,143427	-82,096085	0,000000	0,000000	1735502896,554087	0,000000
523253,000000	2400,334924	1670,252532	-731,982291	4,256144	8,922070	1,164153	-31,245872	-81,276521	0,000000	0,000000	1735502896,556087	0,000000
523254,000000	2401,592210	1672,534272	-730,920583	4,107133	8,707866	1,043081	-31,245872	-81,937760	0,000000	0,000000	1735502896,558087	0,000000
523255,000000	2400,949597	1672,245562	-730,594620	3,781170	8,633360	0,912696	-31,776726	-81,770122	0,000000	0,000000	1735502896,560087	0,000000
523256,000000	2399,962395	1671,230420	-730,715692	3,706664	8,670613	0,763685	-31,590462	-80,857426	0,000000	0,000000	1735502896,562087	0,000000
523257,000000	2398,611978	1669,023186	-731,535256	3,548339	8,428469	0,782311	-31,590462	-80,903992	0,000000	0,000000	1735502896,564087	0,000000
523258,000000	2396,162599	1665,903255	-732,187182	3,650784	7,860363	0,409782	-31,897798	-82,589686	0,000000	0,000000	1735502896,566087	0,000000
523259,000000	2394,244075	1663,053408	-733,006746	3,445894	8,177012	0,456348	-31,711534	-83,083287	0,000000	0,000000	1735502896,568087	0,000000
523260,000000	2394,160256	1661,814749	-734,096393	2,393499	8,782372	0,800937	-31,804666	-81,090257	0,000000	0,000000	1735502896,570087	0,000000
523261,000000	2395,249903	1662,727445	-734,310597	3,613532	8,726493	0,894070	-31,478703	-81,108883	0,000000	0,000000	1735502896,572087	0,000000
523262,000000	2396,693453	1665,074378	-733,407214	3,911555	8,828938	0,931323	-31,189993	-82,151964	0,000000	0,000000	1735502896,574087	0,000000
523263,000000	2399,375662	1669,060439	-732,159242	4,097819	9,145588	1,164153	-31,273812	-82,571059	0,000000	0,000000	1735502896,576087	0,000000
523264,000000	2400,930971	1672,431827	-730,408356	4,079193	9,052455	1,080334	-31,357631	-81,639737	0,000000	0,000000	1735502896,578087	0,000000
523265,000000	2401,070669	1672,944054	-730,119646	3,678724	8,791685	0,903383	-31,478703	-81,434846	0,000000	0,000000	1735502896,580087	0,000000
523266,000000	2400,521189	1672,087237	-730,305910	3,585592	8,633360	0,875443	-31,767413	-82,114711	0,000000	0,000000	1735502896,582087	0,000000
523267,000000	2399,347723	1670,708880	-730,585307	3,688037	8,530915	0,633299	-31,422824	-81,723556	0,000000	0,000000	1735502896,584087	0,000000
523268,000000	2397,308126	1668,399200	-730,827451	3,334135	8,465722	0,586733	-31,674281	-80,568716	0,000000	0,000000	1735502896,586087	0,000000
523269,000000	2395,380288	1665,391028	-731,879845	3,352761	8,335337	0,512227	-31,804666	-81,500039	0,000000	0,000000	1735502896,587087	0,000000
523270,000000	2394,868061	1663,835719	-733,016059	3,483146	8,353963	0,633299	-31,394884	-81,313774	0,000000	0,000000	1735502896,589087	0,000000
523271,000000	2395,594493	1664,403826	-733,239576	3,511086	8,577481	0,717118	-31,394884	-82,124025	0,000000	0,000000	1735502896,591087	0,000000
523272,000000	2397,494391	1666,555181	-732,783228	3,632158	8,735806	1,071021	-31,366944	-81,947073	0,000000	0,000000	1735502896,593087	0,000000
523273,000000	2400,102094	1670,178026	-731,805339	3,864989	9,071082	1,247972	-30,994415	-81,323087	0,000000	0,000000	1735502896,595087	0,000000
523274,000000	2402,001992	1673,111692	-730,743632	3,846362	9,108335	1,024455	-31,236559	-81,760809	0,000000	0,000000	1735502896,597087	0,000000
523275,000000	2402,216196	1673,232764	-730,836764	3,715977	8,940697	0,884756	-31,534582	-81,723556	0,000000	0,000000	1735502896,599087	0,000000
523276,000000	2401,378006	1672,161743	-731,172040	3,650784	8,689240	1,043081	-31,571835	-82,319602	0,000000	0,000000	1735502896,601087	0,000000
523277,000000	2400,260419	1670,634374	-731,423497	3,622845	8,614734	0,772998	-31,441450	-81,993639	0,000000	0,000000	1735502896,603087	0,000000
523278,000000	2398,351207	1668,203622	-732,131302	3,492460	8,502975	0,558794	-31,841919	-81,006438	0,000000	0,000000	1735502896,605087	0,000000
523279,000000	2396,404743	1664,916053	-733,369961	3,268942	8,353963	0,502914	-31,953678	-81,174076	0,000000	0,000000	1735502896,607087	0,000000
523280,000000	2395,054325	1662,727445	-734,180212	3,455207	8,335337	0,717118	-31,990930	-81,649050	0,000000	0,000000	1735502896,609087	0,000000
523281,000000	2395,752817	1663,006842	-734,645873	3,688037	8,391216	0,782311	-31,581149	-81,164762	0,000000	0,000000	1735502896,611087	0,000000
523282,000000	2397,019416	1664,552838	-734,357163	3,594905	8,614734	0,866130	-31,357631	-82,897022	0,000000	0,000000	1735502896,613087	0,000000
523283,000000	2399,217337	1667,505130	-733,397901	3,054738	8,251518	1,052395	-30,631199	-84,377825	0,000000	0,000000	1735502896,615087	0,000000
523284,000000	2401,070669	1670,857891	-732,094049	3,995374	8,689240	1,210719	-31,134114	-82,822517	0,000000	0,000000	1735502896,617087	0,000000
523285,000000	2401,601523	1671,817154	-731,693581	3,604218	8,679926	1,043081	-31,311065	-81,043690	0,000000	0,000000	1735502896,619087	0,000000
523286,000000	2401,005477	1670,755446	-732,149929	3,501773	8,568168	1,117587	-31,385571	-81,602484	0,000000	0,000000	1735502896,621087	0,000000
523287,000000	2399,962395	1669,190824	-732,447952	3,483146	8,800998	0,847504	-31,786039	-82,803890	0,000000	0,000000	1735502896,623087	0,000000
523288,000000	2398,034558	1666,955650	-732,885674	3,427267	8,391216	0,437722	-31,376258	-81,360340	0,000000	0,000000	1735502896,625087	0,000000
523289,000000	2395,752817	1663,612202	-734,031200	3,399327	8,409843	0,437722	-31,935051	-79,395249	0,000000	0,000000	1735502896,627087	0,000000
523290,000000	2394,011244	1660,883427	-734,971836	3,501773	8,381903	0,428408	-32,074749	-82,375482	0,000000	0,000000	1735502896,628087	0,000000
523291,000000	2393,946052	1660,417765	-735,484064	3,660098	8,521602	0,679865	-31,944364	-82,505867	0,000000	0,000000	1735502896,630087	0,000000
523292,000000	2395,268530	1661,917195	-735,223293	3,669411	8,791685	0,838190	-31,711534	-83,353370	0,000000	0,000000	1735502896,632087	0,000000
523293,000000	2397,382632	1664,888114	-734,189525	3,799796	8,838251	1,005828	-31,227246	-81,090257	0,000000	0,000000	1735502896,634087	0,000000
523294,000000	2399,953082	1668,343320	-733,165070	4,209578	9,248033	1,043081	-31,683594	-82,282349	0,000000	0,000000	1735502896,636087	0,000000
523295,000000	2401,350066	1670,699567	-732,541084	3,706664	8,773059	0,884756	-31,683594	-81,919134	0,000000	0,000000	1735502896,638087	0,000000
523296,000000	2400,642261	1670,420170	-732,205808	3,641471	8,856878	0,754371	-31,786039	-81,714243	0,000000	0,000000	1735502896,640087	0,000000
523297,000000	2399,832010	1669,405028	-732,354820	3,706664	8,521602	0,726432	-31,730160	-80,307946	0,000000	0,000000	1735502896,642087	0,000000
523298,000000	2398,248762	1667,533070	-732,559711	3,306195	8,549541	0,670552	-31,599775	-79,115853	0,000000	0,000000	1735502896,644087	0,000000
523299,000000	2395,967022	1664,422452	-733,463094	3,343448	8,493662	0,614673	-31,711534	-80,661848	0,000000	0,000000	1735502896,646087	0,000000
523300,000000	2394,206822	1661,386341	-734,683126	3,408641	8,381903	0,484288	-31,879172	-80,885366	0,000000	0,000000	1735502896,648087	0,000000
523301,000000	2393,899485	1660,259441	-735,465437	3,632158	8,624047	0,689179	-31,674281	-80,978498	0,000000	0,000000	1735502896,650087	0,000000
523302,000000	2395,268530	1661,321148	-735,856593	3,641471	8,679926	0,959262	-31,311065	-80,987811	0,000000	0,000000	1735502896,652087	0,000000
523303,000000	2397,261560	1663,919538	-735,213980	4,004687	8,819625	1,182780	-31,022355	-82,571059	0,000000	0,000000	1735502896,654087	0,000000
523304,000000	2399,589866	1667,533070	-733,770430	4,097819	8,977950	1,210719	-30,798838	-81,658363	0,000000	0,000000	1735502896,656087	0,000000
523305,000000	2401,005477	1670,373604	-732,559711	3,781170	8,903444	1,201406	-30,780211	-81,211329	0,000000	0,000000	1735502896,658087	0,000000
523306,000000	2400,567755	1669,973135	-732,410699	2,598390	8,661300	1,098961	-31,422824	-80,773607	0,000000	0,000000	1735502896,660087	0,000000
523307,000000	2399,729565	1669,116318	-732,364133	3,064051	8,912757	1,005828	-31,795353	-80,652535	0,000000	0,000000	1735502896,662087	0,000000
523308,000000	2398,472279	1667,970791	-732,429326	3,268942	8,437783	0,828877	-32,512471	-81,770122	0,000000	0,000000	1735502896,664087	0,000000
523309,000000	2396,516502	1665,102318	-733,342022	3,352761	8,437783	0,512227	-32,316893	-81,276521	0,000000	0,000000	1735502896,666087	0,000000
523310,000000	2394,551411	1661,954448	-734,515488	3,287569	8,251518	0,493601	-31,841919	-81,965700	0,000000	0,000000	1735502896,668087	0,000000
523311,000000	2393,955365	1660,343260	-735,521317	3,343448	8,475035	0,689179	-32,102689	-82,096085	0,000000	0,000000	1735502896,669087	0,000000
523312,000000	2394,597977	1661,134884	-735,456124	3,632158	8,586794	0,819564	-31,711534	-81,919134	0,000000	0,000000	1735502896,671087	0,000000
523313,000000	2396,190539	1662,950963	-735,027716	3,650784	8,698553	1,043081	-31,478703	-82,002953	0,000000	0,000000	1735502896,673087	0,000000
523314,000000	2398,639917	1666,462049	-734,077767	3,902242	9,015203	1,247972	-31,124800	-82,049519	0,000000	0,000000	1735502896,675087	0,000000
523315,000000	2400,605008	1669,004560	-733,518973	3,874302	9,071082	1,089647	-30,891970	-81,816688	0,000000	0,000000	1735502896,677087	0,000000
523316,000000	2400,772646	1668,492332	-734,208152	3,930181	8,912757	1,033768	-31,683594	-80,764294	0,000000	0,000000	1735502896,679087	0,000000
523317,000000	2400,269732	1667,067409	-735,092908	3,809109	8,689240	0,866130	-31,786039	-79,404563	0,000000	0,000000	1735502896,681087	0,000000
523318,000000	2399,915829	1665,661111	-736,145303	3,445894	8,409843	0,642613	-31,385571	-80,363825	0,000000	0,000000	1735502896,683087	0,000000
523319,000000	2399,263903	1663,807780	-737,467781	3,343448	8,307397	0,447035	-31,534582	-82,319602	0,000000	0,000000	1735502896,685087	0,000000
523320,000000	2398,760989	1661,786810	-738,902017	3,119931	8,409843	0,493601	-31,990930	-82,347542	0,000000	0,000000	1735502896,687087	0,000000
523321,000000	2399,981022	1661,079004	-740,764663	3,194436	8,540228	0,651926	-32,000244	-80,140308	0,000000	0,000000	1735502896,689087	0,000000
523322,000000	2403,138205	1663,202420	-741,723925	3,408641	8,502975	0,838190	-31,599775	-79,981983	0,000000	0,000000	1735502896,691087	0,000000
523323,000000	2406,435087	1667,570323	-740,792602	3,576279	8,642673	0,940636	-31,469390	-81,006438	0,000000	0,000000	1735502896,693087	0,000000
523324,000000	2410,393208	1674,378291	-737,961382	3,660098	8,828938	1,145527	-31,273812	-79,432502	0,000000	0,000000	1735502896,695087	0,000000
523325,000000	2414,956689	1681,828871	-734,971836	3,715977	8,894131	1,043081	-31,078234	-80,103055	0,000000	0,000000	1735502896,697087	0,000000
523326,000000	2417,787910	1687,547192	-732,066110	3,576279	8,717179	0,922009	-31,702220	-83,250925	0,000000	0,000000	1735502896,699087	0,000000
523327,000000	2418,709919	1692,706719	-727,921724	3,483146	8,717179	0,791624	-31,478703	-81,053004	0,000000	0,000000	1735502896,701087	0,000000
523328,000000	2419,538796	1699,198037	-722,352415	3,306195	8,540228	0,707805	-32,000244	-80,214813	0,000000	0,000000	1735502896,703087	0,000000
523329,000000	2419,417724	1704,692841	-716,671348	3,194436	8,279458	0,568107	-32,121316	-80,615282	0,000000	0,000000	1735502896,705087	0,000000
523330,000000	2416,800708	1708,418131	-710,338354	3,166497	8,093193	0,549480	-32,391399	-83,660707	0,000000	0,000000	1735502896,707087	0,000000
523331,000000	2414,397895	1711,593941	-704,778358	3,268942	8,326024	0,754371	-31,869859	-81,090257	0,000000	0,000000	1735502896,709087	0,000000
523332,000000	2414,342016	1716,390252	-699,870288	4,684553	8,791685	1,071021	-32,000244	-81,062317	0,000000	0,000000	1735502896,711087	0,000000
523333,000000	2414,472401	1720,730215	-695,604831	4,181638	8,800998	1,108274	-31,655654	-81,118196	0,000000	0,000000	1735502896,712087	0,000000
523334,000000	2416,288480	1722,322777	-695,902854	4,200265	8,866191	1,126900	-31,488016	-81,127509	0,000000	0,000000	1735502896,714087	0,000000
523335,000000	2420,712262	1722,276211	-700,205564	3,855675	8,828938	1,164153	-31,031668	-82,189217	0,000000	0,000000	1735502896,716087	0,000000
523336,000000	2420,069650	1721,018925	-700,801611	4,256144	8,447096	0,810251	-31,376258	-82,226470	0,000000	0,000000	1735502896,718087	0,000000
523337,000000	2415,589988	1716,185361	-701,230019	3,548339	8,381903	0,782311	-31,553209	-80,596656	0,000000	0,000000	1735502896,720087	0,000000
523338,000000	2412,265167	1707,812771	-706,333667	3,259629	8,326024	0,856817	-31,767413	-81,611797	0,000000	0,000000	1735502896,722087	0,000000
523339,000000	2408,036962	1696,776599	-713,234767	3,324822	8,419156	0,642613	-31,683594	-80,568716	0,000000	0,000000	1735502896,724087	0,000000
523340,000000	2403,063700	1686,168835	-718,869269	3,287569	8,307397	0,568107	-31,758100	-81,909820	0,000000	0,000000	1735502896,726087	0,000000
523341,000000	2398,928627	1675,700769	-725,053251	3,278255	8,353963	0,614673	-31,758100	-82,049519	0,000000	0,000000	1735502896,728087	0,000000
523342,000000	2397,131175	1667,961478	-731,004402	3,511086	8,437783	0,772998	-31,953678	-82,626939	0,000000	0,000000	1735502896,730087	0,000000
