381510,000000	2751,629800	1725,051552	-1028,524712	3,241003	8,288771	0,223517	-31,646341	-77,290460	0,000000	0,000000	1735502619,722087	0,000000
381511,000000	2746,712416	1716,846600	-1031,784341	3,511086	8,344650	0,530854	-31,059608	-77,635050	0,000000	0,000000	1735502619,724087	0,000000
381512,000000	2747,476101	1714,006066	-1035,472378	3,734604	8,698553	0,800937	-30,789524	-77,383593	0,000000	0,000000	1735502619,725087	0,000000
381513,000000	2752,346918	1714,471728	-1039,961353	3,175810	8,596107	0,968575	-30,975789	-76,014549	0,000000	0,000000	1735502619,727087	0,000000
381514,000000	2761,660144	1718,811691	-1044,934615	3,660098	9,210780	1,378357	-30,929223	-77,681616	0,000000	0,000000	1735502619,729087	0,000000
381515,000000	2770,647407	1724,762842	-1047,821715	4,274771	8,996576	1,145527	-30,612573	-78,016892	0,000000	0,000000	1735502619,731087	0,000000
381516,000000	2772,659063	1728,134230	-1046,424732	3,920868	8,828938	0,866130	-30,994415	-77,756122	0,000000	0,000000	1735502619,733087	0,000000
381517,000000	2771,886066	1728,814095	-1044,999808	3,864989	8,577481	0,605360	-30,929223	-77,672303	0,000000	0,000000	1735502619,735087	0,000000
381518,000000	2769,008279	1728,087664	-1042,690128	3,650784	8,409843	0,558794	-31,171367	-76,293945	0,000000	0,000000	1735502619,737087	0,000000
381519,000000	2761,613578	1725,461334	-1038,108021	3,362074	8,186325	0,279397	-31,515956	-75,893477	0,000000	0,000000	1735502619,739087	0,000000
381520,000000	2752,849832	1720,739529	-1034,084707	3,362074	8,344650	0,158325	-31,273812	-77,560544	0,000000	0,000000	1735502619,741087	0,000000
381521,000000	2747,373655	1716,446131	-1032,799482	3,613532	8,363277	0,437722	-31,534582	-77,094883	0,000000	0,000000	1735502619,743087	0,000000
381522,000000	2746,265382	1714,350656	-1033,795998	3,725290	8,661300	0,717118	-31,152740	-77,243894	0,000000	0,000000	1735502619,745087	0,000000
381523,000000	2749,608830	1714,872196	-1036,664471	3,958121	9,145588	0,949949	-30,929223	-78,398734	0,000000	0,000000	1735502619,747087	0,000000
381524,000000	2757,720649	1718,299463	-1041,321084	4,256144	9,313226	1,359731	-30,454248	-76,778233	0,000000	0,000000	1735502619,749087	0,000000
381525,000000	2766,475081	1723,365858	-1045,027748	4,181638	9,248033	1,387671	-30,426309	-77,374279	0,000000	0,000000	1735502619,751087	0,000000
381526,000000	2769,986168	1726,886258	-1044,925302	3,762543	8,717179	0,894070	-30,687079	-77,411532	0,000000	0,000000	1735502619,753087	0,000000
381527,000000	2769,511193	1727,724448	-1043,686643	3,632158	8,661300	0,847504	-30,342489	-76,377764	0,000000	0,000000	1735502619,755087	0,000000
381528,000000	2767,518163	1727,426425	-1041,907817	3,650784	8,456409	0,791624	-30,873343	-77,569857	0,000000	0,000000	1735502619,757087	0,000000
381529,000000	2761,557698	1725,284383	-1038,042828	3,390014	8,307397	0,400469	-31,059608	-76,862052	0,000000	0,000000	1735502619,759087	0,000000
381530,000000	2752,989531	1721,037552	-1033,842564	3,352761	8,270144	0,279397	-31,543896	-76,321885	0,000000	0,000000	1735502619,761087	0,000000
381531,000000	2746,237442	1716,567203	-1031,691208	3,352761	8,428469	0,372529	-31,301752	-77,486038	0,000000	0,000000	1735502619,763087	0,000000
381532,000000	2744,803205	1714,257523	-1032,529399	3,650784	8,558854	0,586733	-31,050295	-76,601282	0,000000	0,000000	1735502619,765087	0,000000
381533,000000	2747,215331	1714,210957	-1034,922898	4,060566	8,866191	1,089647	-30,882657	-76,722354	0,000000	0,000000	1735502619,766087	0,000000
381534,000000	2755,029127	1717,386767	-1039,467752	4,284084	9,061769	1,415610	-30,426309	-76,955184	0,000000	0,000000	1735502619,768087	0,000000
381535,000000	2764,342353	1722,378656	-1043,919474	4,470348	9,266660	1,611188	-30,519441	-78,193843	0,000000	0,000000	1735502619,770087	0,000000
381536,000000	2769,557759	1726,839691	-1044,664532	4,041940	8,922070	1,173466	-30,882657	-76,368451	0,000000	0,000000	1735502619,772087	0,000000
381537,000000	2770,014107	1728,162169	-1043,742523	3,799796	8,838251	1,089647	-31,022355	-77,774748	0,000000	0,000000	1735502619,774087	0,000000
381538,000000	2768,561244	1728,255302	-1042,252406	3,566965	8,903444	0,735745	-31,134114	-76,387078	0,000000	0,000000	1735502619,776087	0,000000
381539,000000	2763,988450	1726,765186	-1039,206982	3,194436	8,475035	0,558794	-31,087548	-75,744465	0,000000	0,000000	1735502619,778087	0,000000
381540,000000	2755,438909	1722,835004	-1034,541056	2,887100	8,344650	0,325963	-31,795353	-75,036660	0,000000	0,000000	1735502619,780087	0,000000
381541,000000	2748,053521	1718,085259	-1031,849533	3,390014	8,419156	0,279397	-31,320378	-76,089054	0,000000	0,000000	1735502619,782087	0,000000
381542,000000	2745,417878	1714,825630	-1032,594591	2,067536	8,372590	0,447035	-31,096861	-76,284632	0,000000	0,000000	1735502619,784087	0,000000
381543,000000	2747,159451	1714,229584	-1034,839079	3,576279	8,856878	0,679865	-30,593947	-77,346340	0,000000	0,000000	1735502619,786087	0,000000
381544,000000	2753,417939	1716,464758	-1038,974151	4,274771	9,331852	1,145527	-30,547380	-77,765435	0,000000	0,000000	1735502619,788087	0,000000
381545,000000	2762,945369	1721,195877	-1043,658704	4,339963	9,238720	1,313165	-30,584633	-77,635050	0,000000	0,000000	1735502619,790087	0,000000
381546,000000	2769,818529	1726,113260	-1045,698300	4,051253	8,959323	1,033768	-30,454248	-76,331198	0,000000	0,000000	1735502619,792087	0,000000
381547,000000	2771,262079	1728,516072	-1044,701785	3,902242	8,819625	0,903383	-31,050295	-78,342855	0,000000	0,000000	1735502619,794087	0,000000
381548,000000	2770,470455	1728,869975	-1043,500379	3,650784	8,651987	0,707805	-31,311065	-78,761950	0,000000	0,000000	1735502619,796087	0,000000
381549,000000	2766,679972	1728,031784	-1040,603966	3,371388	8,326024	0,540167	-31,553209	-77,709556	0,000000	0,000000	1735502619,798087	0,000000
381550,000000	2758,689225	1724,632457	-1036,031172	3,352761	8,279458	0,353903	-31,637028	-78,743324	0,000000	0,000000	1735502619,800087	0,000000
381551,000000	2750,502899	1719,994470	-1032,454893	3,259629	8,344650	0,204891	-31,292439	-77,467412	0,000000	0,000000	1735502619,802087	0,000000
381552,000000	2746,535465	1716,287807	-1032,063738	3,511086	8,540228	0,363216	-30,957162	-75,548887	0,000000	0,000000	1735502619,804087	0,000000
381553,000000	2747,317776	1715,421677	-1033,833250	3,688037	8,791685	0,810251	-30,752271	-77,411532	0,000000	0,000000	1735502619,806087	0,000000
381554,000000	2752,281725	1716,455445	-1037,698239	4,144385	8,950010	1,247972	-30,770898	-77,895820	0,000000	0,000000	1735502619,808087	0,000000
381555,000000	2761,306241	1720,739529	-1042,438671	4,395843	9,192154	1,462176	-30,538067	-77,206641	0,000000	0,000000	1735502619,809087	0,000000
381556,000000	2769,464627	1726,169139	-1045,214012	4,097819	9,089708	1,210719	-30,826777	-76,089054	0,000000	0,000000	1735502619,811087	0,000000
381557,000000	2771,336585	1729,149371	-1044,133678	3,986061	8,987263	1,005828	-31,245872	-76,387078	0,000000	0,000000	1735502619,813087	0,000000
381558,000000	2770,703286	1729,875803	-1042,792574	4,898757	9,182841	0,996515	-31,199306	-79,646707	0,000000	0,000000	1735502619,815087	0,000000
381559,000000	2767,806873	1729,447395	-1040,464267	4,153699	8,931383	0,745058	-31,040981	-78,035519	0,000000	0,000000	1735502619,817087	0,000000
381560,000000	2761,036158	1726,755872	-1036,142930	3,436580	8,326024	0,298023	-31,478703	-78,110024	0,000000	0,000000	1735502619,819087	0,000000
381561,000000	2752,440050	1722,117886	-1032,240689	3,306195	8,344650	0,279397	-31,795353	-75,781718	0,000000	0,000000	1735502619,821087	0,000000
381562,000000	2746,907994	1718,094572	-1030,825078	3,427267	8,568168	0,372529	-31,404197	-77,225268	0,000000	0,000000	1735502619,823087	0,000000
381563,000000	2746,805549	1716,623083	-1032,184809	3,818423	8,745119	0,772998	-31,413510	-78,557059	0,000000	0,000000	1735502619,825087	0,000000
381564,000000	2750,447020	1717,414707	-1034,997404	4,237518	9,052455	1,341105	-30,919909	-79,134479	0,000000	0,000000	1735502619,827087	0,000000
381565,000000	2758,996561	1721,167937	-1039,747149	4,554167	9,331852	1,406297	-30,705705	-78,231096	0,000000	0,000000	1735502619,829087	0,000000
381566,000000	2768,011764	1726,616174	-1043,314114	4,423782	9,443611	1,387671	-30,854717	-78,771263	0,000000	0,000000	1735502619,831087	0,000000
381567,000000	2771,830186	1730,350778	-1043,304801	4,125759	8,977950	1,043081	-31,003729	-77,793375	0,000000	0,000000	1735502619,833087	0,000000
381568,000000	2772,053704	1731,738448	-1042,298973	4,004687	8,726493	0,940636	-31,692907	-78,873709	0,000000	0,000000	1735502619,835087	0,000000
381569,000000	2770,349383	1731,757075	-1040,492207	3,734604	8,596107	0,726432	-31,488016	-78,026205	0,000000	0,000000	1735502619,837087	0,000000
381570,000000	2764,696255	1729,857177	-1036,673784	3,371388	8,353963	0,260770	-31,869859	-78,203157	0,000000	0,000000	1735502619,839087	0,000000
381571,000000	2756,696194	1725,954935	-1032,575965	3,315508	8,260831	0,279397	-31,478703	-78,044832	0,000000	0,000000	1735502619,841087	0,000000
381572,000000	2750,549465	1721,754670	-1030,582935	3,352761	8,288771	0,512227	-31,292439	-77,150762	0,000000	0,000000	1735502619,843087	0,000000
381573,000000	2749,254927	1719,668508	-1031,449065	3,706664	8,642673	0,726432	-31,441450	-77,914447	0,000000	0,000000	1735502619,845087	0,000000
381574,000000	2751,834691	1719,873399	-1033,870503	3,930181	8,856878	1,033768	-31,199306	-77,513978	0,000000	0,000000	1735502619,847087	0,000000
381575,000000	2759,387717	1722,928137	-1038,378105	4,414469	9,285286	1,350418	-30,696392	-77,039003	0,000000	0,000000	1735502619,849087	0,000000
381576,000000	2768,924460	1728,218049	-1042,587683	4,442409	9,378418	1,406297	-30,426309	-76,703727	0,000000	0,000000	1735502619,850087	0,000000
381577,000000	2774,614841	1732,828096	-1043,770462	4,116446	9,117648	1,033768	-31,031668	-77,234581	0,000000	0,000000	1735502619,852087	0,000000
381578,000000	2775,005996	1734,560356	-1042,457297	3,855675	8,828938	0,800937	-30,677766	-77,933073	0,000000	0,000000	1735502619,854087	0,000000
381579,000000	2773,981541	1734,914258	-1040,901989	3,818423	8,819625	0,810251	-30,752271	-78,137964	0,000000	0,000000	1735502619,856087	0,000000
381580,000000	2769,455314	1733,498648	-1037,912443	3,483146	8,502975	0,558794	-31,227246	-77,662989	0,000000	0,000000	1735502619,858087	0,000000
381581,000000	2761,427313	1729,698852	-1033,656299	3,408641	8,353963	0,251457	-31,488016	-77,448785	0,000000	0,000000	1735502619,860087	0,000000
381582,000000	2754,405141	1725,368202	-1030,992717	3,594905	8,577481	0,325963	-31,515956	-78,286976	0,000000	0,000000	1735502619,862087	0,000000
381583,000000	2752,020955	1722,415909	-1031,477004	3,790483	8,335337	0,521541	-31,264499	-78,277662	0,000000	0,000000	1735502619,864087	0,000000
381584,000000	2753,520384	1721,857116	-1033,609733	4,051253	8,530915	0,810251	-30,668452	-77,970326	0,000000	0,000000	1735502619,866087	0,000000
381585,000000	2760,179341	1724,315807	-1037,884504	4,284084	8,950010	1,201406	-30,444935	-79,842284	0,000000	0,000000	1735502619,868087	0,000000
381586,000000	2770,014107	1729,335636	-1042,531803	4,153699	9,248033	1,536682	-30,398369	-78,547746	0,000000	0,000000	1735502619,870087	0,000000
381587,000000	2777,362242	1734,625548	-1044,515520	3,827736	9,005889	1,303852	-30,910596	-76,992437	0,000000	0,000000	1735502619,872087	0,000000
381588,000000	2778,759226	1736,972481	-1043,658704	3,557652	8,856878	0,996515	-30,919909	-78,277662	0,000000	0,000000	1735502619,874087	0,000000
381589,000000	2778,293565	1737,689599	-1042,606309	3,576279	8,745119	0,735745	-30,538067	-77,858567	0,000000	0,000000	1735502619,876087	0,000000
381590,000000	2775,229514	1737,186685	-1040,110365	3,483146	8,614734	0,512227	-31,050295	-77,346340	0,000000	0,000000	1735502619,878087	0,000000
381591,000000	2768,207341	1734,131947	-1035,928726	3,268942	8,307397	0,139698	-31,320378	-77,774748	0,000000	0,000000	1735502619,880087	0,000000
381592,000000	2760,468051	1729,633659	-1032,762229	3,194436	8,223578	0,167638	-31,664968	-77,970326	0,000000	0,000000	1735502619,882087	0,000000
381593,000000	2756,835893	1726,038754	-1032,687724	3,604218	8,419156	0,512227	-31,106174	-77,672303	0,000000	0,000000	1735502619,884087	0,000000
381594,000000	2757,860348	1724,986359	-1034,680754	3,688037	8,689240	0,689179	-30,808151	-78,314915	0,000000	0,000000	1735502619,886087	0,000000
381595,000000	2763,029188	1726,364717	-1038,582996	4,041940	8,912757	1,089647	-30,640513	-76,815486	0,000000	0,000000	1735502619,888087	0,000000
381596,000000	2772,547305	1730,965450	-1043,640077	4,377216	9,210780	1,303852	-30,519441	-77,923760	0,000000	0,000000	1735502619,890087	0,000000
381597,000000	2781,208605	1736,618578	-1046,564430	4,274771	9,201467	1,229346	-30,267984	-80,158934	0,000000	0,000000	1735502619,891087	0,000000
381598,000000	2783,704549	1739,552245	-1046,070829	3,958121	8,856878	0,987202	-30,836090	-79,683959	0,000000	0,000000	1735502619,893087	0,000000
381599,000000	2783,499658	1740,399748	-1045,083627	3,883615	8,726493	0,912696	-31,143427	-80,028549	0,000000	0,000000	1735502619,895087	0,000000
381600,000000	2781,180665	1739,924774	-1043,109223	3,632158	8,530915	0,530854	-31,478703	-79,078600	0,000000	0,000000	1735502619,897087	0,000000
381601,000000	2774,652094	1737,754792	-1038,806513	3,334135	8,335337	0,260770	-31,888485	-78,231096	0,000000	0,000000	1735502619,899087	0,000000
381602,000000	2766,428515	1733,228564	-1035,034657	3,315508	8,251518	0,251457	-31,674281	-77,988952	0,000000	0,000000	1735502619,901087	0,000000
381603,000000	2761,026844	1729,633659	-1033,479348	3,511086	8,419156	0,596046	-31,609088	-77,513978	0,000000	0,000000	1735502619,903087	0,000000
381604,000000	2761,213109	1728,031784	-1035,463065	4,479662	9,080395	0,931323	-31,348318	-77,867880	0,000000	0,000000	1735502619,905087	0,000000
381605,000000	2765,534446	1728,786156	-1038,685441	4,284084	9,005889	1,080334	-31,040981	-78,091398	0,000000	0,000000	1735502619,907087	0,000000
381606,000000	2773,879096	1732,250676	-1043,453813	4,228204	9,275973	1,387671	-30,854717	-78,305602	0,000000	0,000000	1735502619,909087	0,000000
381607,000000	2782,754600	1737,540588	-1047,095284	4,339963	9,248033	1,126900	-31,013042	-78,994781	0,000000	0,000000	1735502619,911087	0,000000
381608,000000	2786,396071	1741,321757	-1046,955585	4,237518	8,922070	0,949949	-30,947849	-77,802688	0,000000	0,000000	1735502619,913087	0,000000
381609,000000	2786,302939	1742,402092	-1045,754179	3,948808	8,735806	0,754371	-30,789524	-79,832971	0,000000	0,000000	1735502619,915087	0,000000
381610,000000	2784,188837	1742,057502	-1044,040546	3,641471	8,651987	0,707805	-30,994415	-79,218298	0,000000	0,000000	1735502619,917087	0,000000
381611,000000	2778,470516	1739,906147	-1040,380448	3,352761	8,316711	0,316650	-31,171367	-76,666474	0,000000	0,000000	1735502619,919087	0,000000
381612,000000	2770,107239	1735,864207	-1036,189497	3,231689	8,288771	0,195578	-31,366944	-76,582655	0,000000	0,000000	1735502619,921087	0,000000
381613,000000	2763,643861	1731,403172	-1034,168527	3,194436	8,335337	0,335276	-31,255186	-77,523291	0,000000	0,000000	1735502619,923087	0,000000
381614,000000	2762,340009	1728,991047	-1035,174355	3,483146	8,754432	0,670552	-31,432137	-76,452270	0,000000	0,000000	1735502619,925087	0,000000
381615,000000	2764,835954	1729,046926	-1037,605107	3,799796	9,080395	0,856817	-31,236559	-77,607110	0,000000	0,000000	1735502619,927087	0,000000
381616,000000	2772,202715	1732,110977	-1041,917130	4,377216	9,266660	1,220033	-30,947849	-78,249723	0,000000	0,000000	1735502619,929087	0,000000
381617,000000	2781,003714	1736,814156	-1046,108082	4,125759	9,424984	1,331791	-30,538067	-80,224127	0,000000	0,000000	1735502619,931087	0,000000
381618,000000	2785,678953	1740,874723	-1046,610996	3,790483	9,210780	0,949949	-30,715019	-78,948215	0,000000	0,000000	1735502619,932087	0,000000
381619,000000	2785,576507	1742,206514	-1045,241952	3,613532	8,773059	0,651926	-30,975789	-78,184530	0,000000	0,000000	1735502619,934087	0,000000
381620,000000	2783,806995	1741,899177	-1043,733209	3,632158	8,717179	0,679865	-31,059608	-77,709556	0,000000	0,000000	1735502619,936087	0,000000
381621,000000	2778,479829	1740,111038	-1040,231436	3,371388	8,409843	0,325963	-31,720847	-76,759607	0,000000	0,000000	1735502619,938087	0,000000
381622,000000	2769,529819	1736,143604	-1035,295427	3,175810	8,344650	0,074506	-31,897798	-78,286976	0,000000	0,000000	1735502619,940087	0,000000
381623,000000	2761,492506	1731,049269	-1032,510772	3,408641	8,437783	0,242144	-31,795353	-78,743324	0,000000	0,000000	1735502619,942087	0,000000
381624,000000	2758,335322	1727,519557	-1032,650471	3,455207	8,605421	0,596046	-31,134114	-78,650191	0,000000	0,000000	1735502619,944087	0,000000
381625,000000	2759,406343	1726,606861	-1034,541056	3,874302	8,931383	0,838190	-30,966476	-78,631565	0,000000	0,000000	1735502619,946087	0,000000
381626,000000	2764,845267	1728,134230	-1038,610935	4,209578	9,201467	1,071021	-30,752271	-78,799203	0,000000	0,000000	1735502619,948087	0,000000
381627,000000	2773,152664	1732,222736	-1042,811200	4,265457	9,294599	1,313165	-30,649826	-79,218298	0,000000	0,000000	1735502619,950087	0,000000
381628,000000	2779,383212	1736,693084	-1044,590026	4,172325	9,071082	1,080334	-30,854717	-79,656020	0,000000	0,000000	1735502619,952087	0,000000
381629,000000	2779,960632	1738,462597	-1043,379307	3,902242	8,950010	0,856817	-31,581149	-77,839941	0,000000	0,000000	1735502619,954087	0,000000
381630,000000	2778,712660	1738,574356	-1041,991636	3,362074	8,763745	0,698492	-31,385571	-77,215955	0,000000	0,000000	1735502619,956087	0,000000
381631,000000	2774,214372	1736,851409	-1039,337367	3,483146	8,391216	0,512227	-31,283125	-76,787546	0,000000	0,000000	1735502619,958087	0,000000
381632,000000	2766,009420	1732,762903	-1035,043970	3,334135	8,186325	0,186265	-31,171367	-77,830628	0,000000	0,000000	1735502619,960087	0,000000
381633,000000	2757,506445	1727,975905	-1031,439751	3,064051	8,121133	0,279397	-31,115487	-77,215955	0,000000	0,000000	1735502619,962087	0,000000
381634,000000	2752,896398	1724,027097	-1031,011343	1,862645	8,093193	0,223517	-31,050295	-77,076256	0,000000	0,000000	1735502619,964087	0,000000
381635,000000	2753,082663	1722,509041	-1032,417640	3,641471	8,679926	0,558794	-30,817464	-77,700242	0,000000	0,000000	1735502619,966087	0,000000
381636,000000	2757,338807	1722,993329	-1036,273316	3,650784	8,717179	0,838190	-30,314550	-79,767779	0,000000	0,000000	1735502619,968087	0,000000
381637,000000	2766,428515	1727,212220	-1041,106880	4,190952	9,108335	1,247972	-30,566007	-78,799203	0,000000	0,000000	1735502619,970087	0,000000
381638,000000	2773,925662	1732,166857	-1043,658704	4,218891	8,894131	1,201406	-30,696392	-79,590827	0,000000	0,000000	1735502619,972087	0,000000
381639,000000	2775,229514	1734,299585	-1042,867079	3,771856	8,773059	0,856817	-31,022355	-78,789890	0,000000	0,000000	1735502619,974087	0,000000
381640,000000	2774,456516	1734,737307	-1041,647047	3,594905	8,847564	0,791624	-31,366944	-78,221783	0,000000	0,000000	1735502619,975087	0,000000
381641,000000	2771,634609	1734,402031	-1039,067283	3,529713	8,642673	0,540167	-31,208619	-77,541918	0,000000	0,000000	1735502619,977087	0,000000
381642,000000	2764,640376	1731,375232	-1035,081223	3,110617	8,400530	0,400469	-31,115487	-76,824799	0,000000	0,000000	1735502619,979087	0,000000
381643,000000	2755,476162	1726,606861	-1030,778512	3,036112	8,251518	0,167638	-31,134114	-79,246238	0,000000	0,000000	1735502619,981087	0,000000
381644,000000	2749,925479	1722,434536	-1029,390842	3,511086	8,363277	0,400469	-31,357631	-79,823658	0,000000	0,000000	1735502619,983087	0,000000
381645,000000	2749,375999	1720,571890	-1030,750573	3,650784	8,577481	0,791624	-31,143427	-80,158934	0,000000	0,000000	1735502619,985087	0,000000
381646,000000	2753,026783	1720,944420	-1033,861190	4,107133	8,884817	1,071021	-30,966476	-77,476725	0,000000	0,000000	1735502619,987087	0,000000
381647,000000	2761,231735	1724,474132	-1038,666815	4,274771	9,257346	1,322478	-30,677766	-78,035519	0,000000	0,000000	1735502619,989087	0,000000
381648,000000	2770,135179	1729,466021	-1042,615622	4,172325	9,303913	1,313165	-30,705705	-77,290460	0,000000	0,000000	1735502619,991087	0,000000
381649,000000	2773,506567	1732,818782	-1042,811200	5,178154	8,465722	0,866130	-30,761585	-78,398734	0,000000	0,000000	1735502619,993087	0,000000
381650,000000	2773,553133	1734,131947	-1041,507348	3,883615	8,670613	0,782311	-31,115487	-76,405704	0,000000	0,000000	1735502619,995087	0,000000
381651,000000	2771,578729	1734,113321	-1039,355993	3,576279	8,661300	0,642613	-31,236559	-76,657161	0,000000	0,000000	1735502619,997087	0,000000
381652,000000	2765,590325	1732,129604	-1035,658643	3,855675	9,089708	0,372529	-31,897798	-79,115853	0,000000	0,000000	1735502619,999087	0,000000
381653,000000	2756,854519	1727,705821	-1031,402498	4,088506	8,344650	0,149012	-31,571835	-78,929588	0,000000	0,000000	1735502620,001087	0,000000
381654,000000	2750,214189	1723,412424	-1028,859988	3,837049	8,223578	0,484288	-31,292439	-78,435987	0,000000	0,000000	1735502620,003087	0,000000
381655,000000	2748,714760	1720,981672	-1029,679552	3,660098	8,717179	0,642613	-31,264499	-77,206641	0,000000	0,000000	1735502620,005087	0,000000
381656,000000	2751,117572	1721,167937	-1031,970605	4,041940	8,819625	0,959262	-30,873343	-77,318400	0,000000	0,000000	1735502620,007087	0,000000
381657,000000	2758,717164	1724,120229	-1036,571339	4,312024	9,024516	1,378357	-30,500814	-77,988952	0,000000	0,000000	1735502620,009087	0,000000
381658,000000	2768,114209	1729,354262	-1040,613279	4,293397	9,033829	1,378357	-30,426309	-78,268349	0,000000	0,000000	1735502620,011087	0,000000
381659,000000	2773,115411	1733,759418	-1041,227952	3,846362	8,903444	0,968575	-30,882657	-78,156590	0,000000	0,000000	1735502620,013087	0,000000
381660,000000	2773,469314	1735,370606	-1040,045172	3,734604	8,717179	0,884756	-31,096861	-78,547746	0,000000	0,000000	1735502620,015087	0,000000
381661,000000	2772,137523	1735,528931	-1038,471237	3,688037	8,633360	0,717118	-31,162053	-77,178702	0,000000	0,000000	1735502620,016087	0,000000
381662,000000	2767,397091	1733,852550	-1035,397872	3,203750	8,242205	0,316650	-31,422824	-77,756122	0,000000	0,000000	1735502620,018087	0,000000
381663,000000	2758,614719	1729,670912	-1030,899584	3,241003	8,121133	0,093132	-31,553209	-78,631565	0,000000	0,000000	1735502620,020087	0,000000
381664,000000	2751,098946	1724,809408	-1028,152183	3,194436	8,055940	0,270084	-31,720847	-78,948215	0,000000	0,000000	1735502620,022087	0,000000
381665,000000	2748,435363	1721,875742	-1028,478146	3,483146	8,447096	0,614673	-31,087548	-78,920275	0,000000	0,000000	1735502620,024087	0,000000
381666,000000	2749,683335	1721,186563	-1030,340791	3,799796	8,670613	0,772998	-30,985102	-78,473240	0,000000	0,000000	1735502620,026087	0,000000
381667,000000	2755,997702	1723,533496	-1034,364104	4,209578	8,987263	1,350418	-30,323863	-79,460442	0,000000	0,000000	1735502620,028087	0,000000
381668,000000	2765,785903	1728,525385	-1039,216295	4,125759	9,005889	1,424924	-30,444935	-78,985468	0,000000	0,000000	1735502620,030087	0,000000
381669,000000	2772,910520	1733,638346	-1041,190699	3,855675	8,847564	1,071021	-30,631199	-77,318400	0,000000	0,000000	1735502620,032087	0,000000
381670,000000	2774,205059	1735,677943	-1040,408388	3,781170	8,679926	0,782311	-30,780211	-77,392906	0,000000	0,000000	1735502620,034087	0,000000
381671,000000	2773,366868	1736,255363	-1039,113849	3,715977	8,428469	0,800937	-30,687079	-78,342855	0,000000	0,000000	1735502620,036087	0,000000
381672,000000	2769,418061	1734,960824	-1036,394387	3,436580	8,288771	0,558794	-30,659139	-76,936558	0,000000	0,000000	1735502620,038087	0,000000
381673,000000	2760,915086	1730,984077	-1031,868160	3,231689	8,018687	0,419095	-31,217933	-77,364966	0,000000	0,000000	1735502620,040087	0,000000
381674,000000	2752,700821	1725,982875	-1028,617844	3,268942	8,111820	0,419095	-31,348318	-77,337027	0,000000	0,000000	1735502620,042087	0,000000
381675,000000	2748,984843	1722,145826	-1028,748229	3,455207	8,353963	0,568107	-31,245872	-76,377764	0,000000	0,000000	1735502620,044087	0,000000
381676,000000	2749,869600	1721,084118	-1030,564308	3,566965	8,549541	0,689179	-31,040981	-77,532604	0,000000	0,000000	1735502620,046087	0,000000
381677,000000	2754,675224	1722,387969	-1034,168527	3,958121	8,735806	1,061708	-30,593947	-78,100711	0,000000	0,000000	1735502620,048087	0,000000
381678,000000	2763,913944	1726,839691	-1039,039344	4,097819	9,145588	1,378357	-30,314550	-77,625737	0,000000	0,000000	1735502620,050087	0,000000
381679,000000	2772,193402	1732,390374	-1041,758806	4,116446	8,987263	1,201406	-30,575320	-78,231096	0,000000	0,000000	1735502620,052087	0,000000
381680,000000	2774,130553	1735,063270	-1041,013747	3,585592	8,689240	0,568107	-30,919909	-78,184530	0,000000	0,000000	1735502620,054087	0,000000
381681,000000	2773,525193	1735,491678	-1039,914787	3,287569	8,605421	0,484288	-31,031668	-78,277662	0,000000	0,000000	1735502620,056087	0,000000
381682,000000	2770,591527	1735,202968	-1037,279144	3,334135	8,437783	0,437722	-31,152740	-77,448785	0,000000	0,000000	1735502620,057087	0,000000
381683,000000	2763,075754	1732,120290	-1032,892615	2,160668	8,139759	0,437722	-31,571835	-77,569857	0,000000	0,000000	1735502620,059087	0,000000
381684,000000	2754,488960	1727,212220	-1029,316336	3,203750	8,502975	0,400469	-31,813979	-78,901649	0,000000	0,000000	1735502620,061087	0,000000
381685,000000	2748,956904	1722,853631	-1028,319821	3,213063	8,279458	0,530854	-31,562522	-77,048317	0,000000	0,000000	1735502620,063087	0,000000
381686,000000	2748,584375	1721,205190	-1029,288396	3,613532	8,530915	0,717118	-30,864030	-78,454614	0,000000	0,000000	1735502620,065087	0,000000
381687,000000	2752,048895	1721,931621	-1032,007858	4,041940	8,847564	1,024455	-30,668452	-79,413876	0,000000	0,000000	1735502620,067087	0,000000
381688,000000	2760,048956	1725,470647	-1036,655158	4,367903	9,303913	1,331791	-30,584633	-78,221783	0,000000	0,000000	1735502620,069087	0,000000
381689,000000	2768,905833	1730,471849	-1040,361822	4,358590	9,257346	1,313165	-31,031668	-77,793375	0,000000	0,000000	1735502620,071087	0,000000
381690,000000	2772,398293	1733,945683	-1040,361822	4,014000	8,800998	0,912696	-30,910596	-78,398734	0,000000	0,000000	1735502620,073087	0,000000
381691,000000	2772,286534	1734,932885	-1039,337367	3,818423	8,679926	0,726432	-30,938536	-77,132136	0,000000	0,000000	1735502620,075087	0,000000
381692,000000	2770,582214	1734,485850	-1037,940383	3,669411	8,493662	0,549480	-31,143427	-78,249723	0,000000	0,000000	1735502620,077087	0,000000
381693,000000	2764,798701	1732,688397	-1033,823937	3,371388	8,130446	0,242144	-31,441450	-77,346340	0,000000	0,000000	1735502620,079087	0,000000
381694,000000	2756,211907	1728,553325	-1029,670238	2,989545	8,288771	0,372529	-31,711534	-78,584999	0,000000	0,000000	1735502620,081087	0,000000
381695,000000	2749,897540	1724,092290	-1027,770340	3,529713	8,475035	0,363216	-31,115487	-78,696758	0,000000	0,000000	1735502620,083087	0,000000
381696,000000	2749,124542	1721,838489	-1029,260457	3,762543	8,661300	0,651926	-31,236559	-77,169389	0,000000	0,000000	1735502620,085087	0,000000
381697,000000	2751,583233	1722,034067	-1031,504944	4,116446	8,819625	0,838190	-30,845404	-77,821314	0,000000	0,000000	1735502620,087087	0,000000
381698,000000	2758,949995	1724,511385	-1036,478207	5,001202	8,950010	1,061708	-30,910596	-77,979639	0,000000	0,000000	1735502620,089087	0,000000
381699,000000	2768,253908	1729,419455	-1040,948555	2,849847	9,033829	1,182780	-30,491501	-76,275319	0,000000	0,000000	1735502620,091087	0,000000
381700,000000	2773,292363	1733,554527	-1041,591167	3,846362	8,931383	1,052395	-30,966476	-76,713040	0,000000	0,000000	1735502620,093087	0,000000
381701,000000	2773,758024	1734,970137	-1040,659845	3,874302	8,847564	0,996515	-31,180680	-78,454614	0,000000	0,000000	1735502620,095087	0,000000
381702,000000	2772,165462	1734,960824	-1039,197668	3,790483	8,549541	0,698492	-31,590462	-77,383593	0,000000	0,000000	1735502620,097087	0,000000
381703,000000	2767,220140	1733,340323	-1035,798341	3,511086	8,279458	0,242144	-31,581149	-77,541918	0,000000	0,000000	1735502620,099087	0,000000
381704,000000	2758,884802	1729,382202	-1031,374559	3,287569	8,028001	0,242144	-31,283125	-74,934214	0,000000	0,000000	1735502620,100087	0,000000
381705,000000	2751,396969	1724,585891	-1028,785482	3,427267	8,093193	0,353903	-31,301752	-76,610595	0,000000	0,000000	1735502620,102087	0,000000
381706,000000	2748,882398	1721,531153	-1029,251143	3,539026	8,326024	0,465661	-31,385571	-78,929588	0,000000	0,000000	1735502620,104087	0,000000
381707,000000	2750,577405	1721,018925	-1031,504944	3,762543	8,745119	0,670552	-31,189993	-79,823658	0,000000	0,000000	1735502620,106087	0,000000
381708,000000	2756,956965	1723,105088	-1035,705209	4,200265	9,145588	1,182780	-30,286610	-79,954043	0,000000	0,000000	1735502620,108087	0,000000
381709,000000	2765,869722	1727,612689	-1040,231436	4,479662	9,192154	1,396984	-30,342489	-78,314915	0,000000	0,000000	1735502620,110087	0,000000
381710,000000	2772,826701	1732,315868	-1042,289659	4,172325	8,987263	0,959262	-31,106174	-78,286976	0,000000	0,000000	1735502620,112087	0,000000
381711,000000	2773,823217	1734,485850	-1041,255891	3,939494	8,856878	0,772998	-31,013042	-76,787546	0,000000	0,000000	1735502620,114087	0,000000
381712,000000	2772,873268	1735,035330	-1039,821655	3,874302	8,698553	0,689179	-31,143427	-77,681616	0,000000	0,000000	1735502620,116087	0,000000
381713,000000	2769,054845	1733,973622	-1036,999747	3,539026	8,372590	0,493601	-31,022355	-77,486038	0,000000	0,000000	1735502620,118087	0,000000
381714,000000	2760,794014	1730,294898	-1032,482833	3,157184	8,177012	0,121072	-31,571835	-77,383593	0,000000	0,000000	1735502620,120087	0,000000
381715,000000	2752,710134	1725,470647	-1029,204577	3,399327	8,204952	0,111759	-31,562522	-77,290460	0,000000	0,000000	1735502620,122087	0,000000
381716,000000	2748,770639	1721,484587	-1029,167324	3,743917	8,428469	0,335276	-31,022355	-78,938901	0,000000	0,000000	1735502620,124087	0,000000
381717,000000	2749,711275	1720,488071	-1030,974090	4,032627	8,679926	0,335276	-31,162053	-78,240409	0,000000	0,000000	1735502620,126087	0,000000
381718,000000	2754,786983	1721,717417	-1034,941524	4,265457	9,145588	1,033768	-30,798838	-77,821314	0,000000	0,000000	1735502620,128087	0,000000
381719,000000	2764,267847	1726,308838	-1039,896160	4,619360	9,341165	1,341105	-30,836090	-77,877194	0,000000	0,000000	1735502620,130087	0,000000
381720,000000	2772,472799	1731,412485	-1042,960212	4,488975	9,024516	1,192093	-30,817464	-76,619908	0,000000	0,000000	1735502620,132087	0,000000
381721,000000	2774,409950	1734,178513	-1042,177901	4,107133	8,689240	0,922009	-30,910596	-75,800344	0,000000	0,000000	1735502620,134087	0,000000
381722,000000	2773,562446	1734,551042	-1040,939242	3,920868	8,698553	0,987202	-31,013042	-76,927245	0,000000	0,000000	1735502620,136087	0,000000
381723,000000	2770,451829	1733,684912	-1038,694754	3,725290	8,391216	0,800937	-31,171367	-77,625737	0,000000	0,000000	1735502620,138087	0,000000
381724,000000	2763,327211	1730,769873	-1034,541056	3,362074	8,223578	0,428408	-31,236559	-75,893477	0,000000	0,000000	1735502620,140087	0,000000
381725,000000	2754,479647	1725,833863	-1030,638814	4,060566	8,353963	0,232831	-31,115487	-76,722354	0,000000	0,000000	1735502620,141087	0,000000
381726,000000	2748,770639	1721,344888	-1029,344276	3,874302	8,558854	0,521541	-31,124800	-77,625737	0,000000	0,000000	1735502620,143087	0,000000
381727,000000	2748,761326	1719,836146	-1030,815765	3,883615	8,735806	1,005828	-31,143427	-77,020377	0,000000	0,000000	1735502620,145087	0,000000
381728,000000	2752,207220	1720,255241	-1033,851877	4,135072	9,145588	1,303852	-30,547380	-77,085570	0,000000	0,000000	1735502620,147087	0,000000
381729,000000	2760,607749	1723,542809	-1038,974151	4,181638	9,303913	1,480803	-30,482188	-79,665333	0,000000	0,000000	1735502620,149087	0,000000
381730,000000	2770,135179	1728,981733	-1043,137163	4,293397	9,285286	1,406297	-30,435622	-77,951699	0,000000	0,000000	1735502620,151087	0,000000
381731,000000	2773,571759	1732,427627	-1043,090597	4,032627	8,987263	0,987202	-30,687079	-77,225268	0,000000	0,000000	1735502620,153087	0,000000
381732,000000	2773,264423	1733,116806	-1042,066142	3,986061	8,838251	0,894070	-31,385571	-76,508150	0,000000	0,000000	1735502620,155087	0,000000
381733,000000	2770,973369	1732,641831	-1040,371135	2,961606	8,363277	0,726432	-31,432137	-76,023862	0,000000	0,000000	1735502620,157087	0,000000
381734,000000	2764,659002	1730,537042	-1036,012545	3,417954	8,214265	0,521541	-31,227246	-77,774748	0,000000	0,000000	1735502620,159087	0,000000
381735,000000	2756,137401	1726,206392	-1031,802967	3,390014	8,540228	0,353903	-31,339005	-78,035519	0,000000	0,000000	1735502620,161087	0,000000
381736,000000	2749,692649	1721,596345	-1029,940322	3,715977	8,391216	0,391155	-31,152740	-78,370795	0,000000	0,000000	1735502620,163087	0,000000
381737,000000	2748,211846	1718,774438	-1031,402498	3,883615	8,540228	0,670552	-31,432137	-76,135620	0,000000	0,000000	1735502620,165087	0,000000
381738,000000	2750,372514	1718,485728	-1033,833250	4,079193	8,773059	0,996515	-30,826777	-77,458099	0,000000	0,000000	1735502620,167087	0,000000
381739,000000	2758,139744	1721,316949	-1038,601622	4,498288	8,996576	1,359731	-30,556694	-78,072771	0,000000	0,000000	1735502620,169087	0,000000
381740,000000	2768,011764	1726,821065	-1043,025404	4,526228	9,052455	1,443550	-30,724332	-78,566372	0,000000	0,000000	1735502620,171087	0,000000
381741,000000	2772,836015	1731,337979	-1043,584198	4,498288	8,279458	0,819564	-30,538067	-79,022720	0,000000	0,000000	1735502620,173087	0,000000
381742,000000	2772,994339	1732,427627	-1042,513177	4,032627	8,745119	0,894070	-30,910596	-76,051801	0,000000	0,000000	1735502620,175087	0,000000
381743,000000	2771,466970	1732,427627	-1040,920615	3,958121	8,707866	0,735745	-31,180680	-78,184530	0,000000	0,000000	1735502620,177087	0,000000
381744,000000	2766,363323	1730,788499	-1037,446782	3,548339	8,298084	0,558794	-31,413510	-78,408048	0,000000	0,000000	1735502620,179087	0,000000
381745,000000	2758,037299	1727,053896	-1032,995060	3,287569	8,149073	0,316650	-31,534582	-80,680475	0,000000	0,000000	1735502620,181087	0,000000
381746,000000	2750,959247	1722,574234	-1030,284911	3,464520	8,102506	0,363216	-31,450763	-77,839941	0,000000	0,000000	1735502620,182087	0,000000
381747,000000	2748,509869	1719,472930	-1030,927524	3,771856	8,577481	0,661239	-31,292439	-76,275319	0,000000	0,000000	1735502620,184087	0,000000
381748,000000	2749,683335	1718,718559	-1032,799482	3,930181	8,782372	0,838190	-31,236559	-77,793375	0,000000	0,000000	1735502620,186087	0,000000
381749,000000	2756,509930	1721,149310	-1037,223265	4,349276	8,996576	1,266599	-30,575320	-78,743324	0,000000	0,000000	1735502620,188087	0,000000
381750,000000	2765,869722	1725,992188	-1041,674986	4,507601	9,266660	1,434237	-30,323863	-78,380108	0,000000	0,000000	1735502620,190087	0,000000
381751,000000	2772,118896	1730,602235	-1043,491066	4,414469	9,005889	1,136214	-30,472875	-78,557059	0,000000	0,000000	1735502620,192087	0,000000
381752,000000	2773,245797	1733,088866	-1042,103395	4,069880	8,763745	0,922009	-30,482188	-78,370795	0,000000	0,000000	1735502620,194087	0,000000
381753,000000	2772,351727	1733,480021	-1040,836796	3,753230	8,642673	0,810251	-30,603260	-79,181045	0,000000	0,000000	1735502620,196087	0,000000
381754,000000	2768,654376	1732,222736	-1038,378105	3,445894	8,558854	0,549480	-31,450763	-78,640878	0,000000	0,000000	1735502620,198087	0,000000
381755,000000	2760,412171	1728,897914	-1033,488661	3,287569	8,232892	0,428408	-32,028183	-78,342855	0,000000	0,000000	1735502620,200087	0,000000
381756,000000	2752,225846	1724,008471	-1030,135900	3,241003	8,111820	0,400469	-31,776726	-78,370795	0,000000	0,000000	1735502620,202087	0,000000
381757,000000	2748,686820	1720,478758	-1030,061394	3,520399	8,316711	0,521541	-31,404197	-78,435987	0,000000	0,000000	1735502620,204087	0,000000
381758,000000	2749,525011	1719,538122	-1031,933352	3,734604	8,521602	0,791624	-30,854717	-76,899305	0,000000	0,000000	1735502620,206087	0,000000
381759,000000	2754,498273	1720,711589	-1035,742462	4,284084	8,931383	1,238659	-30,491501	-77,383593	0,000000	0,000000	1735502620,208087	0,000000
381760,000000	2763,746306	1725,126058	-1040,631905	4,442409	9,229407	1,387671	-30,668452	-77,458099	0,000000	0,000000	1735502620,210087	0,000000
381761,000000	2771,811560	1730,360091	-1043,379307	4,172325	9,108335	1,285225	-30,631199	-77,104196	0,000000	0,000000	1735502620,212087	0,000000
381762,000000	2773,618326	1733,126119	-1042,345539	3,809109	8,838251	0,847504	-30,985102	-77,206641	0,000000	0,000000	1735502620,214087	0,000000
381763,000000	2773,292363	1733,871177	-1041,367650	3,846362	8,791685	0,903383	-31,031668	-77,281147	0,000000	0,000000	1735502620,216087	0,000000
381764,000000	2770,544961	1733,256504	-1039,169729	3,715977	8,549541	0,735745	-31,171367	-77,430159	0,000000	0,000000	1735502620,218087	0,000000
381765,000000	2763,513476	1730,658114	-1034,829766	3,185123	8,260831	0,223517	-31,702220	-77,998266	0,000000	0,000000	1735502620,220087	0,000000
381766,000000	2755,103633	1726,076007	-1031,011343	3,436580	8,065253	0,121072	-31,664968	-77,141449	0,000000	0,000000	1735502620,222087	0,000000
381767,000000	2749,422565	1721,447334	-1029,856503	3,566965	8,409843	0,614673	-31,702220	-77,784061	0,000000	0,000000	1735502620,224087	0,000000
381768,000000	2749,208361	1719,603315	-1031,411812	3,706664	8,679926	0,810251	-31,394884	-76,647848	0,000000	0,000000	1735502620,225087	0,000000
381769,000000	2753,008157	1720,273867	-1034,587622	4,107133	8,931383	1,136214	-30,808151	-78,240409	0,000000	0,000000	1735502620,227087	0,000000
381770,000000	2761,110663	1723,757014	-1039,253548	4,377216	9,480864	1,452863	-30,864030	-77,402219	0,000000	0,000000	1735502620,229087	0,000000
381771,000000	2769,967541	1729,093492	-1042,801887	4,144385	9,238720	1,322478	-30,817464	-77,383593	0,000000	0,000000	1735502620,231087	0,000000
381772,000000	2773,497254	1732,883975	-1042,606309	3,669411	8,922070	0,949949	-31,013042	-76,983124	0,000000	0,000000	1735502620,233087	0,000000
381773,000000	2773,376182	1733,833924	-1041,423529	3,436580	8,847564	0,791624	-31,087548	-78,268349	0,000000	0,000000	1735502620,235087	0,000000
381774,000000	2770,805731	1733,601093	-1039,085910	3,548339	8,754432	0,651926	-31,441450	-77,951699	0,000000	0,000000	1735502620,237087	0,000000
381775,000000	2764,696255	1731,328666	-1035,118476	3,604218	8,335337	0,223517	-31,897798	-77,616423	0,000000	0,000000	1735502620,239087	0,000000
381776,000000	2756,007016	1726,308838	-1031,495631	3,399327	8,158386	0,121072	-31,562522	-78,370795	0,000000	0,000000	1735502620,241087	0,000000
381777,000000	2749,823034	1721,782610	-1030,005515	3,557652	8,251518	0,307336	-31,432137	-75,940043	0,000000	0,000000	1735502620,243087	0,000000
381778,000000	2748,686820	1719,258726	-1031,253487	3,669411	8,512288	0,605360	-30,947849	-78,901649	0,000000	0,000000	1735502620,245087	0,000000
381779,000000	2751,210704	1719,407737	-1033,749431	3,930181	8,735806	0,884756	-30,836090	-78,370795	0,000000	0,000000	1735502620,247087	0,000000
381780,000000	2758,894116	1722,536981	-1038,322225	4,293397	9,117648	1,285225	-30,621886	-77,104196	0,000000	0,000000	1735502620,249087	0,000000
381781,000000	2768,272534	1727,519557	-1042,755321	4,405156	9,210780	1,518056	-30,258670	-77,160075	0,000000	0,000000	1735502620,251087	0,000000
381782,000000	2773,152664	1731,505617	-1043,556258	4,023314	8,968636	1,052395	-30,603260	-77,402219	0,000000	0,000000	1735502620,253087	0,000000
381783,000000	2773,134038	1732,734963	-1042,271033	3,883615	8,968636	0,754371	-30,798838	-77,784061	0,000000	0,000000	1735502620,255087	0,000000
381784,000000	2771,373838	1732,381061	-1040,799543	3,827736	8,679926	0,735745	-30,985102	-77,476725	0,000000	0,000000	1735502620,257087	0,000000
381785,000000	2766,288817	1730,741933	-1037,437469	3,417954	8,344650	0,400469	-31,543896	-76,983124	0,000000	0,000000	1735502620,259087	0,000000
381786,000000	2757,702023	1726,625487	-1032,995060	3,296882	8,326024	0,232831	-32,018870	-76,815486	0,000000	0,000000	1735502620,261087	0,000000
381787,000000	2749,999985	1721,810549	-1030,173153	3,241003	8,363277	0,195578	-31,683594	-77,839941	0,000000	0,000000	1735502620,263087	0,000000
381788,000000	2747,895196	1718,746498	-1031,206921	4,097819	8,670613	0,316650	-31,311065	-79,367310	0,000000	0,000000	1735502620,265087	0,000000
381789,000000	2749,757841	1718,243584	-1033,591107	4,023314	8,642673	0,577420	-31,096861	-78,799203	0,000000	0,000000	1735502620,266087	0,000000
381790,000000	2756,305039	1720,599830	-1037,763432	4,088506	9,080395	1,154840	-30,584633	-77,886507	0,000000	0,000000	1735502620,268087	0,000000
381791,000000	2765,422687	1724,986359	-1042,382792	3,809109	9,201467	1,341105	-30,538067	-78,612939	0,000000	0,000000	1735502620,270087	0,000000
381792,000000	2771,764994	1729,512587	-1044,264063	3,734604	9,052455	1,052395	-30,295923	-77,579170	0,000000	0,000000	1735502620,272087	0,000000
381793,000000	2772,482112	1731,403172	-1042,941585	3,790483	8,838251	0,735745	-30,891970	-76,396391	0,000000	0,000000	1735502620,274087	0,000000
381794,000000	2771,262079	1731,747761	-1041,386276	3,734604	8,651987	0,568107	-31,124800	-78,044832	0,000000	0,000000	1735502620,276087	0,000000
381795,000000	2767,331898	1730,639488	-1038,676128	3,371388	8,475035	0,502914	-31,571835	-77,532604	0,000000	0,000000	1735502620,278087	0,000000
381796,000000	2759,126946	1726,904884	-1034,177840	3,436580	8,307397	-0,027940	-31,627715	-78,575686	0,000000	0,000000	1735502620,280087	0,000000
381797,000000	2751,043066	1722,071320	-1030,918211	3,362074	8,484349	0,018626	-31,637028	-78,314915	0,000000	0,000000	1735502620,282087	0,000000
381798,000000	2747,336403	1718,327403	-1030,918211	3,641471	8,782372	0,465661	-30,640513	-77,439472	0,000000	0,000000	1735502620,284087	0,000000
381799,000000	2748,034894	1716,883853	-1033,153385	3,958121	8,968636	0,661239	-30,566007	-76,908618	0,000000	0,000000	1735502620,286087	0,000000
381800,000000	2752,719447	1717,712730	-1036,748290	4,284084	9,266660	1,089647	-30,538067	-76,647848	0,000000	0,000000	1735502620,288087	0,000000
381801,000000	2762,051299	1722,490415	-1041,386276	4,582107	9,266660	1,434237	-30,547380	-79,059973	0,000000	0,000000	1735502620,290087	0,000000
381802,000000	2770,256251	1727,966592	-1044,217497	4,386529	9,145588	1,238659	-30,575320	-77,774748	0,000000	0,000000	1735502620,292087	0,000000
381803,000000	2772,072330	1730,751246	-1043,230295	4,088506	8,931383	0,894070	-30,919909	-77,793375	0,000000	0,000000	1735502620,294087	0,000000
381804,000000	2771,858126	1731,654629	-1042,177901	4,032627	8,866191	0,772998	-31,180680	-78,855082	0,000000	0,000000	1735502620,296087	0,000000
381805,000000	2769,511193	1731,282100	-1040,212810	3,809109	8,614734	0,586733	-31,394884	-77,318400	0,000000	0,000000	1735502620,298087	0,000000
381806,000000	2761,874348	1727,845520	-1035,882160	3,343448	8,363277	0,353903	-31,646341	-76,070428	0,000000	0,000000	1735502620,300087	0,000000
381807,000000	2752,868459	1722,816378	-1031,812280	3,268942	8,279458	0,288710	-31,841919	-76,228753	0,000000	0,000000	1735502620,302087	0,000000
381808,000000	2747,336403	1718,234271	-1030,946150	3,622845	8,512288	0,391155	-31,311065	-76,154247	0,000000	0,000000	1735502620,304087	0,000000
381809,000000	2747,103572	1716,306433	-1032,669097	3,715977	8,828938	0,605360	-30,975789	-75,483695	0,000000	0,000000	1735502620,306087	0,000000
381810,000000	2750,745043	1716,744155	-1035,826281	4,079193	8,959323	0,875443	-30,845404	-77,048317	0,000000	0,000000	1735502620,307087	0,000000
381811,000000	2758,977935	1720,432192	-1040,417701	4,414469	9,117648	1,210719	-30,742958	-77,700242	0,000000	0,000000	1735502620,309087	0,000000
381812,000000	2767,704427	1725,666225	-1044,040546	4,349276	9,154901	1,247972	-30,789524	-79,423189	0,000000	0,000000	1735502620,311087	0,000000
381813,000000	2770,982683	1729,289070	-1043,677330	3,939494	8,819625	0,838190	-31,078234	-77,448785	0,000000	0,000000	1735502620,313087	0,000000
381814,000000	2770,870924	1730,294898	-1042,503864	3,902242	8,707866	0,698492	-31,283125	-77,802688	0,000000	0,000000	1735502620,315087	0,000000
381815,000000	2768,179402	1729,438081	-1040,594652	3,762543	8,577481	0,596046	-31,348318	-75,995922	0,000000	0,000000	1735502620,317087	0,000000
381816,000000	2761,892974	1726,970077	-1036,869362	3,492460	8,521602	0,400469	-31,543896	-78,808516	0,000000	0,000000	1735502620,319087	0,000000
381817,000000	2753,213048	1722,658053	-1032,557338	3,576279	8,419156	0,344589	-31,394884	-79,916790	0,000000	0,000000	1735502620,321087	0,000000
381818,000000	2746,609971	1717,824489	-1030,713320	3,259629	8,521602	0,279397	-31,664968	-79,013407	0,000000	0,000000	1735502620,323087	0,000000
381819,000000	2745,762467	1715,580001	-1032,073051	3,799796	8,596107	0,726432	-31,301752	-78,156590	0,000000	0,000000	1735502620,325087	0,000000
381820,000000	2748,565748	1716,027036	-1034,466550	4,684553	8,912757	1,005828	-31,273812	-78,352168	0,000000	0,000000	1735502620,327087	0,000000
381821,000000	2756,631002	1718,979329	-1039,477065	4,610047	9,257346	1,154840	-30,938536	-79,050660	0,000000	0,000000	1735502620,329087	0,000000
381822,000000	2766,354010	1724,613830	-1043,630764	4,423782	9,294599	1,192093	-30,966476	-78,566372	0,000000	0,000000	1735502620,331087	0,000000
381823,000000	2770,656720	1728,516072	-1044,003293	3,958121	8,894131	0,819564	-31,469390	-77,877194	0,000000	0,000000	1735502620,333087	0,000000
381824,000000	2770,805731	1729,717478	-1042,848453	3,846362	8,856878	0,838190	-31,497329	-77,746809	0,000000	0,000000	1735502620,335087	0,000000
381825,000000	2769,557759	1730,024815	-1041,470096	3,734604	8,717179	0,679865	-31,106174	-78,184530	0,000000	0,000000	1735502620,337087	0,000000
381826,000000	2763,615921	1728,180796	-1037,474722	3,613532	8,521602	0,372529	-31,692907	-78,761950	0,000000	0,000000	1735502620,339087	0,000000
381827,000000	2752,384171	1723,142341	-1031,085849	3,417954	8,232892	0,232831	-32,102689	-77,895820	0,000000	0,000000	1735502620,341087	0,000000
381828,000000	2742,465585	1717,209816	-1027,015969	3,390014	8,326024	0,279397	-31,627715	-77,877194	0,000000	0,000000	1735502620,343087	0,000000
381829,000000	2739,755437	1713,801175	-1027,854159	3,753230	8,726493	0,679865	-31,664968	-77,057630	0,000000	0,000000	1735502620,345087	0,000000
381830,000000	2742,558718	1713,754609	-1030,704007	3,892928	8,856878	1,005828	-31,385571	-78,538433	0,000000	0,000000	1735502620,347087	0,000000
381831,000000	2751,760185	1716,678962	-1036,981121	4,377216	9,229407	1,406297	-31,134114	-79,404563	0,000000	0,000000	1735502620,349087	0,000000
381832,000000	2764,612436	1722,471789	-1044,133678	4,395843	9,210780	1,527369	-30,882657	-78,631565	0,000000	0,000000	1735502620,350087	0,000000
381833,000000	2773,115411	1727,957278	-1047,095284	4,153699	9,015203	1,220033	-30,742958	-79,255551	0,000000	0,000000	1735502620,352087	0,000000
381834,000000	2773,813903	1730,499789	-1045,260578	3,799796	8,912757	1,033768	-31,106174	-79,330057	0,000000	0,000000	1735502620,354087	0,000000
381835,000000	2772,649750	1731,095836	-1043,397933	3,632158	8,735806	0,875443	-31,227246	-79,348683	0,000000	0,000000	1735502620,356087	0,000000
381836,000000	2767,844126	1730,024815	-1039,672643	3,259629	8,400530	0,502914	-31,311065	-79,711899	0,000000	0,000000	1735502620,358087	0,000000
381837,000000	2757,227048	1725,889742	-1033,293083	3,445894	8,270144	0,176951	-31,739473	-77,644363	0,000000	0,000000	1735502620,360087	0,000000
381838,000000	2746,144310	1720,348373	-1027,965918	2,942979	8,344650	0,176951	-31,739473	-76,303259	0,000000	0,000000	1735502620,362087	0,000000
381839,000000	2740,416676	1715,300605	-1026,997343	3,259629	8,596107	0,502914	-31,422824	-78,538433	0,000000	0,000000	1735502620,364087	0,000000
381840,000000	2741,254866	1713,316888	-1029,726118	3,688037	8,773059	0,717118	-31,292439	-78,426674	0,000000	0,000000	1735502620,366087	0,000000
381841,000000	2748,789266	1715,011895	-1035,965979	5,792826	9,424984	1,154840	-31,357631	-79,469755	0,000000	0,000000	1735502620,368087	0,000000
381842,000000	2761,278301	1719,975844	-1043,397933	4,824251	9,369105	1,378357	-31,162053	-76,973811	0,000000	0,000000	1735502620,370087	0,000000
381843,000000	2771,699801	1726,150513	-1047,682017	3,986061	8,847564	0,996515	-30,724332	-78,026205	0,000000	0,000000	1735502620,372087	0,000000
381844,000000	2773,515880	1729,372889	-1046,117395	3,660098	8,605421	0,782311	-31,189993	-79,991296	0,000000	0,000000	1735502620,374087	0,000000
381845,000000	2772,733569	1730,294898	-1044,413075	3,697351	8,828938	0,726432	-31,292439	-79,022720	0,000000	0,000000	1735502620,376087	0,000000
381846,000000	2769,073471	1729,596406	-1041,358337	3,529713	8,642673	0,484288	-31,376258	-76,964498	0,000000	0,000000	1735502620,378087	0,000000
381847,000000	2759,490162	1726,048067	-1035,304740	3,241003	8,279458	0,121072	-31,609088	-77,905133	0,000000	0,000000	1735502620,380087	0,000000
381848,000000	2748,062834	1720,637083	-1029,223204	3,166497	8,316711	0,186265	-32,046810	-77,961013	0,000000	0,000000	1735502620,382087	0,000000
381849,000000	2740,416676	1715,347171	-1026,941463	3,539026	8,614734	0,372529	-31,664968	-75,884163	0,000000	0,000000	1735502620,384087	0,000000
381850,000000	2740,593627	1713,149250	-1029,325649	3,790483	8,866191	0,698492	-31,245872	-76,806173	0,000000	0,000000	1735502620,386087	0,000000
381851,000000	2746,274695	1713,968813	-1034,261659	4,060566	9,313226	0,968575	-30,845404	-78,277662	0,000000	0,000000	1735502620,388087	0,000000
381852,000000	2758,363262	1718,467101	-1041,796058	4,367903	9,443611	1,285225	-30,621886	-76,796860	0,000000	0,000000	1735502620,390087	0,000000
381853,000000	2770,908177	1724,651083	-1048,156992	4,367903	9,406358	1,257285	-30,705705	-78,110024	0,000000	0,000000	1735502620,391087	0,000000
381854,000000	2774,484456	1728,385687	-1048,045233	4,041940	9,033829	0,875443	-31,022355	-77,327713	0,000000	0,000000	1735502620,393087	0,000000
381855,000000	2773,599699	1729,307696	-1046,191901	3,986061	8,791685	0,707805	-31,096861	-77,551231	0,000000	0,000000	1735502620,395087	0,000000
381856,000000	2770,433202	1728,907228	-1043,509692	3,715977	8,717179	0,512227	-31,441450	-77,625737	0,000000	0,000000	1735502620,397087	0,000000
381857,000000	2761,948854	1725,992188	-1037,819311	3,483146	8,326024	0,158325	-31,972304	-77,662989	0,000000	0,000000	1735502620,399087	0,000000
381858,000000	2749,608830	1720,525324	-1030,927524	3,436580	8,055940	0,018626	-31,823292	-76,126307	0,000000	0,000000	1735502620,401087	0,000000
381859,000000	2740,900964	1715,170220	-1027,593389	3,566965	8,130446	0,195578	-31,553209	-77,430159	0,000000	0,000000	1735502620,403087	0,000000
381860,000000	2739,513293	1712,292433	-1029,176638	3,790483	8,484349	0,372529	-31,087548	-77,635050	0,000000	0,000000	1735502620,405087	0,000000
381861,000000	2743,797377	1712,515950	-1033,162698	4,265457	8,707866	0,782311	-30,947849	-79,199672	0,000000	0,000000	1735502620,407087	0,000000
381862,000000	2755,215392	1716,539264	-1040,585339	4,563481	9,154901	1,173466	-30,491501	-77,569857	0,000000	0,000000	1735502620,409087	0,000000
381863,000000	2768,617123	1723,123714	-1047,346741	4,516914	9,173527	1,350418	-30,798838	-78,538433	0,000000	0,000000	1735502620,411087	0,000000
381864,000000	2775,266767	1728,516072	-1048,650593	4,144385	8,810312	1,024455	-30,854717	-77,551231	0,000000	0,000000	1735502620,413087	0,000000
381865,000000	2775,117755	1730,108634	-1046,946272	3,855675	8,875504	1,005828	-31,245872	-78,491867	0,000000	0,000000	1735502620,415087	0,000000
381866,000000	2772,584558	1729,726791	-1044,571400	3,622845	8,689240	0,745058	-31,450763	-76,713040	0,000000	0,000000	1735502620,417087	0,000000
381867,000000	2765,543759	1727,547497	-1039,840281	3,362074	8,381903	0,353903	-31,609088	-77,700242	0,000000	0,000000	1735502620,419087	0,000000
381868,000000	2753,799781	1722,536981	-1033,255830	3,082678	7,944182	0,186265	-31,786039	-78,855082	0,000000	0,000000	1735502620,421087	0,000000
381869,000000	2743,294463	1716,641709	-1028,599218	2,756715	7,981434	0,372529	-31,488016	-77,262521	0,000000	0,000000	1735502620,423087	0,000000
381870,000000	2739,876509	1712,786034	-1028,953120	3,669411	8,288771	0,633299	-31,543896	-77,607110	0,000000	0,000000	1735502620,425087	0,000000
381871,000000	2742,642537	1712,404191	-1032,166183	4,470348	8,670613	0,810251	-31,143427	-78,566372	0,000000	0,000000	1735502620,427087	0,000000
381872,000000	2752,048895	1715,188846	-1038,815826	4,405156	9,117648	1,285225	-30,528754	-78,417361	0,000000	0,000000	1735502620,429087	0,000000
381873,000000	2764,873207	1720,516011	-1046,322286	4,572794	9,266660	1,527369	-30,351803	-78,566372	0,000000	0,000000	1735502620,431087	0,000000
381874,000000	2773,180604	1726,169139	-1048,957929	4,116446	8,922070	1,173466	-30,528754	-79,395249	0,000000	0,000000	1735502620,432087	0,000000
381875,000000	2773,161978	1728,450879	-1046,592370	4,069880	8,726493	0,996515	-31,134114	-79,004094	0,000000	0,000000	1735502620,434087	0,000000
381876,000000	2771,699801	1729,279757	-1044,301316	4,982576	8,996576	1,015142	-31,767413	-79,590827	0,000000	0,000000	1735502620,436087	0,000000
381877,000000	2766,810358	1728,162169	-1040,585339	5,206093	8,875504	0,698492	-31,962991	-79,190359	0,000000	0,000000	1735502620,438087	0,000000
381878,000000	2756,034955	1724,120229	-1033,721492	3,380701	7,972121	0,139698	-32,214448	-77,672303	0,000000	0,000000	1735502620,440087	0,000000
381879,000000	2745,073289	1718,383282	-1028,440893	3,352761	8,083880	0,055879	-31,767413	-77,756122	0,000000	0,000000	1735502620,442087	0,000000
381880,000000	2740,323544	1713,801175	-1028,422266	3,417954	8,335337	0,381842	-31,441450	-76,154247	0,000000	0,000000	1735502620,444087	0,000000
381881,000000	2741,906792	1712,394878	-1031,467691	3,697351	8,717179	0,614673	-31,394884	-77,113509	0,000000	0,000000	1735502620,446087	0,000000
381882,000000	2749,823034	1713,968813	-1037,763432	4,181638	8,931383	1,126900	-31,050295	-78,547746	0,000000	0,000000	1735502620,448087	0,000000
381883,000000	2762,507647	1718,830317	-1045,633107	4,442409	9,266660	1,406297	-30,528754	-78,370795	0,000000	0,000000	1735502620,450087	0,000000
381884,000000	2772,603184	1724,651083	-1050,038263	4,312024	9,182841	1,303852	-30,836090	-78,231096	0,000000	0,000000	1735502620,452087	0,000000
381885,000000	2774,093300	1727,659255	-1048,343256	3,818423	8,782372	0,931323	-31,404197	-77,709556	0,000000	0,000000	1735502620,454087	0,000000
381886,000000	2773,059532	1728,571951	-1046,350226	3,725290	8,745119	0,717118	-31,385571	-79,860911	0,000000	0,000000	1735502620,456087	0,000000
381887,000000	2768,933773	1727,882773	-1043,006778	3,436580	8,502975	0,577420	-31,786039	-78,091398	0,000000	0,000000	1735502620,458087	0,000000
381888,000000	2758,791670	1723,971218	-1036,748290	3,054738	8,102506	0,270084	-31,916425	-76,480210	0,000000	0,000000	1735502620,460087	0,000000
381889,000000	2746,721730	1717,954874	-1030,722633	3,147870	7,962808	0,093132	-31,869859	-76,973811	0,000000	0,000000	1735502620,462087	0,000000
381890,000000	2739,317715	1712,366939	-1028,906554	3,278255	8,167699	0,465661	-31,646341	-76,405704	0,000000	0,000000	1735502620,464087	0,000000
381891,000000	2739,522606	1710,308716	-1031,151041	3,613532	8,670613	0,800937	-31,525269	-78,277662	0,000000	0,000000	1735502620,466087	0,000000
381892,000000	2745,492384	1710,783690	-1036,645845	4,069880	9,033829	1,126900	-31,040981	-76,917931	0,000000	0,000000	1735502620,468087	0,000000
381893,000000	2757,683396	1715,011895	-1044,562086	4,144385	9,248033	1,247972	-30,985102	-78,445300	0,000000	0,000000	1735502620,470087	0,000000
381894,000000	2769,725397	1721,093431	-1050,541177	4,358590	9,136274	1,275912	-30,882657	-79,711899	0,000000	0,000000	1735502620,472087	0,000000
381895,000000	2772,817388	1725,144684	-1049,572602	3,976747	8,875504	0,819564	-30,910596	-80,019236	0,000000	0,000000	1735502620,473087	0,000000
381896,000000	2771,578729	1726,187766	-1047,309488	3,688037	8,754432	0,763685	-31,106174	-79,162419	0,000000	0,000000	1735502620,475087	0,000000
381897,000000	2768,458799	1725,889742	-1044,403762	3,501773	8,502975	0,586733	-31,534582	-77,597797	0,000000	0,000000	1735502620,477087	0,000000
381898,000000	2759,536728	1723,077148	-1038,294286	3,548339	8,400530	0,372529	-31,897798	-77,942386	0,000000	0,000000	1735502620,479087	0,000000
381899,000000	2747,699618	1717,293635	-1032,231376	3,166497	8,232892	0,204891	-31,720847	-76,163560	0,000000	0,000000	1735502620,481087	0,000000
381900,000000	2739,056945	1712,078229	-1028,794795	3,213063	8,400530	0,176951	-31,422824	-76,619908	0,000000	0,000000	1735502620,483087	0,000000
381901,000000	2737,585455	1708,902419	-1030,601561	3,203750	8,409843	0,409782	-31,394884	-75,940043	0,000000	0,000000	1735502620,485087	0,000000
381902,000000	2741,534263	1708,818600	-1034,615561	3,958121	9,145588	0,875443	-31,040981	-77,160075	0,000000	0,000000	1735502620,487087	0,000000
381903,000000	2752,542496	1712,450758	-1042,000949	4,274771	9,229407	1,266599	-30,351803	-78,398734	0,000000	0,000000	1735502620,489087	0,000000
381904,000000	2765,636891	1718,224958	-1049,339771	4,339963	9,350479	1,480803	-30,649826	-78,286976	0,000000	0,000000	1735502620,491087	0,000000
381905,000000	2771,969885	1723,477617	-1050,299034	3,827736	9,089708	0,996515	-31,488016	-78,417361	0,000000	0,000000	1735502620,493087	0,000000
381906,000000	2771,792933	1725,256443	-1048,371196	3,902242	8,800998	0,912696	-31,208619	-78,612939	0,000000	0,000000	1735502620,495087	0,000000
381907,000000	2769,138664	1725,349575	-1045,726240	3,753230	8,754432	0,828877	-31,134114	-77,802688	0,000000	0,000000	1735502620,497087	0,000000
381908,000000	2761,799842	1723,207533	-1040,408388	3,250316	8,475035	0,512227	-31,450763	-76,647848	0,000000	0,000000	1735502620,499087	0,000000
381909,000000	2749,618143	1718,299463	-1033,237204	3,138557	8,288771	0,204891	-31,478703	-76,908618	0,000000	0,000000	1735502620,501087	0,000000
381910,000000	2738,879994	1712,189987	-1028,683037	3,203750	8,121133	0,270084	-31,692907	-78,482553	0,000000	0,000000	1735502620,503087	0,000000
381911,000000	2735,862508	1708,371565	-1029,372215	3,492460	8,484349	0,623986	-31,404197	-79,870224	0,000000	0,000000	1735502620,505087	0,000000
381912,000000	2738,609910	1707,421616	-1032,957807	3,743917	8,726493	0,949949	-31,199306	-77,998266	0,000000	0,000000	1735502620,507087	0,000000
381913,000000	2748,500556	1710,131764	-1040,203497	4,163012	9,145588	1,331791	-30,780211	-78,584999	0,000000	0,000000	1735502620,509087	0,000000
381914,000000	2761,827782	1715,756953	-1048,035920	4,386529	9,369105	1,424924	-30,528754	-77,253208	0,000000	0,000000	1735502620,511087	0,000000
381915,000000	2770,051360	1721,130684	-1050,792634	3,939494	9,005889	1,154840	-30,910596	-80,317259	0,000000	0,000000	1735502620,513087	0,000000
381916,000000	2770,181745	1723,095775	-1048,957929	3,827736	8,735806	0,884756	-31,180680	-78,408048	0,000000	0,000000	1735502620,515087	0,000000
381917,000000	2768,356353	1723,589376	-1046,629623	3,799796	8,679926	0,838190	-31,087548	-78,212470	0,000000	0,000000	1735502620,516087	0,000000
381918,000000	2762,423828	1722,043380	-1042,205840	3,436580	8,447096	0,502914	-31,208619	-78,864396	0,000000	0,000000	1735502620,518087	0,000000
381919,000000	2750,828862	1717,722043	-1034,978777	3,175810	8,223578	0,149012	-31,590462	-78,333542	0,000000	0,000000	1735502620,520087	0,000000
381920,000000	2739,010379	1711,491495	-1029,325649	3,073364	8,093193	0,139698	-32,130629	-78,259036	0,000000	0,000000	1735502620,522087	0,000000
381921,000000	2733,850852	1706,890762	-1028,813422	3,287569	8,493662	0,484288	-31,627715	-76,917931	0,000000	0,000000	1735502620,524087	0,000000
381922,000000	2735,424787	1704,907045	-1032,436267	3,390014	8,698553	0,707805	-31,087548	-76,740980	0,000000	0,000000	1735502620,526087	0,000000
381923,000000	2743,182704	1705,856994	-1039,290801	4,032627	9,099022	0,987202	-30,510128	-78,082085	0,000000	0,000000	1735502620,528087	0,000000
381924,000000	2756,686881	1710,914075	-1047,607511	4,330650	9,415671	1,238659	-30,715019	-78,100711	0,000000	0,000000	1735502620,530087	0,000000
381925,000000	2769,548446	1717,880368	-1053,540036	4,293397	9,201467	1,173466	-30,808151	-76,526776	0,000000	0,000000	1735502620,532087	0,000000
381926,000000	2773,813903	1722,387969	-1053,391024	4,088506	8,922070	1,043081	-30,752271	-77,579170	0,000000	0,000000	1735502620,534087	0,000000
381927,000000	2775,564790	1724,846661	-1052,636653	3,827736	8,884817	0,810251	-30,826777	-78,203157	0,000000	0,000000	1735502620,536087	0,000000
381928,000000	2773,683518	1725,414768	-1050,261781	3,566965	8,447096	0,577420	-31,106174	-78,249723	0,000000	0,000000	1735502620,538087	0,000000
381929,000000	2765,320241	1724,418253	-1042,913646	3,315508	8,186325	0,149012	-31,646341	-78,054145	0,000000	0,000000	1735502620,540087	0,000000
381930,000000	2753,706649	1721,009612	-1034,587622	3,110617	8,083880	0,046566	-31,478703	-76,955184	0,000000	0,000000	1735502620,542087	0,000000
381931,000000	2746,768296	1718,970016	-1029,716805	3,417954	8,391216	0,307336	-31,432137	-77,374279	0,000000	0,000000	1735502620,544087	0,000000
381932,000000	2748,630941	1720,590517	-1029,977575	3,604218	8,633360	0,568107	-31,385571	-76,489523	0,000000	0,000000	1735502620,546087	0,000000
381933,000000	2755,802125	1725,582406	-1032,138243	3,939494	9,099022	1,071021	-30,640513	-78,547746	0,000000	0,000000	1735502620,548087	0,000000
381934,000000	2770,330757	1737,009734	-1035,183668	4,284084	9,387732	1,369044	-30,444935	-78,296289	0,000000	0,000000	1735502620,550087	0,000000
381935,000000	2786,004916	1751,221716	-1036,701724	4,386529	9,294599	1,229346	-30,929223	-77,895820	0,000000	0,000000	1735502620,552087	0,000000
381936,000000	2790,978178	1762,220636	-1030,648127	3,892928	8,884817	1,005828	-30,957162	-76,619908	0,000000	0,000000	1735502620,554087	0,000000
381937,000000	2790,214494	1770,071685	-1022,024080	3,892928	9,033829	0,949949	-31,394884	-78,333542	0,000000	0,000000	1735502620,556087	0,000000
381938,000000	2787,085250	1775,491983	-1013,558358	3,697351	8,763745	0,586733	-31,115487	-77,988952	0,000000	0,000000	1735502620,557087	0,000000
381939,000000	2778,070047	1776,749268	-1003,229991	3,203750	8,465722	0,288710	-31,804666	-77,458099	0,000000	0,000000	1735502620,559087	0,000000
381940,000000	2763,336524	1770,574600	-994,540751	3,064051	8,307397	0,046566	-32,065436	-77,178702	0,000000	0,000000	1735502620,561087	0,000000
381941,000000	2754,405141	1761,373132	-994,950533	3,343448	8,298084	0,298023	-31,571835	-76,610595	0,000000	0,000000	1735502620,563087	0,000000
381942,000000	2752,635628	1755,356789	-999,178737	3,576279	8,605421	0,763685	-31,096861	-78,696758	0,000000	0,000000	1735502620,565087	0,000000
381943,000000	2753,203735	1751,892269	-1003,136858	3,781170	8,884817	1,033768	-30,705705	-79,162419	0,000000	0,000000	1735502620,567087	0,000000
381944,000000	2762,386575	1748,977229	-1015,290618	4,153699	9,369105	1,490116	-30,118972	-76,582655	0,000000	0,000000	1735502620,569087	0,000000
381945,000000	2774,745226	1745,847985	-1030,843705	4,256144	9,369105	1,639128	-30,109659	-77,439472	0,000000	0,000000	1735502620,571087	0,000000
381946,000000	2778,861672	1742,448658	-1038,499177	4,488975	8,922070	0,996515	-30,770898	-80,848113	0,000000	0,000000	1735502620,573087	0,000000
381947,000000	2775,462344	1736,097038	-1041,488722	3,511086	8,959323	0,968575	-30,575320	-79,115853	0,000000	0,000000	1735502620,575087	0,000000
381948,000000	2771,075815	1729,112118	-1043,984666	3,390014	8,884817	0,847504	-30,957162	-77,690929	0,000000	0,000000	1735502620,577087	0,000000
381949,000000	2762,367949	1721,745357	-1042,531803	3,352761	8,568168	0,456348	-31,217933	-76,992437	0,000000	0,000000	1735502620,579087	0,000000
381950,000000	2748,798579	1714,359969	-1036,338508	3,194436	8,540228	0,484288	-31,664968	-77,839941	0,000000	0,000000	1735502620,581087	0,000000
381951,000000	2736,309543	1707,235351	-1030,983403	3,445894	8,288771	0,270084	-31,897798	-76,452270	0,000000	0,000000	1735502620,583087	0,000000
381952,000000	2732,044086	1702,662557	-1031,402498	3,650784	8,475035	0,577420	-30,901283	-77,476725	0,000000	0,000000	1735502620,585087	0,000000
381953,000000	2733,757719	1701,517031	-1034,205779	3,725290	8,791685	0,884756	-31,003729	-78,156590	0,000000	0,000000	1735502620,587087	0,000000
381954,000000	2743,685618	1704,487950	-1041,088253	4,107133	9,201467	1,480803	-30,556694	-78,743324	0,000000	0,000000	1735502620,589087	0,000000
381955,000000	2758,288756	1710,429788	-1049,833372	4,265457	9,546056	1,667067	-30,267984	-79,125166	0,000000	0,000000	1735502620,591087	0,000000
381956,000000	2767,937258	1716,362312	-1053,502783	4,023314	9,220093	1,341105	-30,593947	-78,743324	0,000000	0,000000	1735502620,593087	0,000000
381957,000000	2768,244594	1718,439162	-1051,835716	4,051253	8,987263	1,089647	-30,854717	-78,277662	0,000000	0,000000	1735502620,595087	0,000000
381958,000000	2766,074613	1718,457788	-1049,488783	3,864989	8,745119	0,847504	-30,649826	-77,337027	0,000000	0,000000	1735502620,597087	0,000000
381959,000000	2759,238705	1716,557890	-1044,617966	3,427267	8,605421	0,651926	-31,422824	-78,929588	0,000000	0,000000	1735502620,598087	0,000000
381960,000000	2745,212987	1711,249352	-1035,919413	3,185123	8,214265	0,447035	-31,664968	-78,734010	0,000000	0,000000	1735502620,600087	0,000000
381961,000000	2730,535343	1703,761518	-1028,729603	3,334135	8,335337	0,298023	-31,962991	-75,707212	0,000000	0,000000	1735502620,602087	0,000000
381962,000000	2722,507343	1697,540283	-1026,801765	3,473833	8,521602	0,623986	-31,311065	-77,048317	0,000000	0,000000	1735502620,604087	0,000000
381963,000000	2722,367644	1695,025712	-1029,269770	3,529713	8,624047	0,838190	-31,040981	-76,703727	0,000000	0,000000	1735502620,606087	0,000000
381964,000000	2729,846165	1696,161926	-1035,621390	4,060566	9,033829	1,285225	-30,789524	-76,089054	0,000000	0,000000	1735502620,608087	0,000000
381965,000000	2744,281664	1701,675355	-1044,403762	4,451722	9,322539	1,611188	-30,323863	-77,430159	0,000000	0,000000	1735502620,610087	0,000000
381966,000000	2757,422626	1708,557829	-1050,792634	4,395843	9,164214	1,313165	-30,444935	-77,635050	0,000000	0,000000	1735502620,612087	0,000000
381967,000000	2760,700881	1712,935045	-1049,665734	4,014000	8,968636	1,089647	-30,640513	-78,352168	0,000000	0,000000	1735502620,614087	0,000000
381968,000000	2760,300413	1714,555547	-1047,709957	3,846362	8,847564	0,810251	-30,910596	-77,281147	0,000000	0,000000	1735502620,616087	0,000000
381969,000000	2756,183967	1714,294776	-1043,900847	3,585592	8,596107	0,633299	-31,022355	-77,132136	0,000000	0,000000	1735502620,618087	0,000000
381970,000000	2744,412050	1710,206270	-1036,310568	3,883615	8,521602	0,288710	-31,553209	-76,154247	0,000000	0,000000	1735502620,620087	0,000000
381971,000000	2730,451524	1704,171300	-1028,506085	2,998859	8,456409	0,391155	-31,655654	-74,943528	0,000000	0,000000	1735502620,622087	0,000000
381972,000000	2721,827477	1698,900014	-1025,116071	1,918525	8,121133	0,344589	-31,339005	-75,167045	0,000000	0,000000	1735502620,624087	0,000000
381973,000000	2721,324563	1696,487889	-1026,792452	3,846362	8,419156	0,642613	-31,124800	-77,113509	0,000000	0,000000	1735502620,626087	0,000000
381974,000000	2727,406099	1697,391272	-1032,194123	2,263114	7,962808	0,512227	-30,593947	-74,831769	0,000000	0,000000	1735502620,628087	0,000000
381975,000000	2741,999924	1702,662557	-1041,404903	4,312024	8,940697	1,145527	-30,333176	-77,281147	0,000000	0,000000	1735502620,630087	0,000000
381976,000000	2756,901085	1709,880307	-1048,976555	4,395843	9,285286	1,164153	-30,705705	-75,381249	0,000000	0,000000	1735502620,632087	0,000000
381977,000000	2761,846408	1714,508981	-1049,311832	4,079193	8,884817	0,912696	-31,199306	-77,858567	0,000000	0,000000	1735502620,634087	0,000000
381978,000000	2762,014046	1716,325060	-1047,626138	3,902242	8,679926	0,828877	-31,674281	-79,199672	0,000000	0,000000	1735502620,636087	0,000000
381979,000000	2759,434283	1716,325060	-1045,046374	3,632158	8,530915	0,661239	-31,441450	-77,029690	0,000000	0,000000	1735502620,638087	0,000000
381980,000000	2749,990672	1713,447273	-1038,406044	3,362074	8,251518	0,288710	-31,590462	-77,718869	0,000000	0,000000	1735502620,640087	0,000000
381981,000000	2735,853195	1707,617193	-1030,024141	3,064051	8,055940	0,037253	-31,637028	-77,635050	0,000000	0,000000	1735502620,641087	0,000000
381982,000000	2724,938095	1701,479778	-1025,386155	3,175810	8,475035	0,307336	-31,618401	-77,560544	0,000000	0,000000	1735502620,643087	0,000000
381983,000000	2722,870559	1698,127016	-1026,699319	3,548339	8,614734	0,521541	-31,450763	-76,442957	0,000000	0,000000	1735502620,645087	0,000000
381984,000000	2727,480605	1698,201522	-1031,234860	3,911555	8,884817	0,791624	-30,845404	-77,877194	0,000000	0,000000	1735502620,647087	0,000000
381985,000000	2741,049975	1702,243462	-1040,734351	4,274771	9,275973	1,313165	-30,668452	-78,445300	0,000000	0,000000	1735502620,649087	0,000000
381986,000000	2757,124603	1709,274948	-1049,758866	4,377216	9,359792	1,443550	-30,603260	-77,718869	0,000000	0,000000	1735502620,651087	0,000000
381987,000000	2765,152603	1715,105027	-1052,049920	4,041940	9,080395	1,052395	-30,873343	-76,666474	0,000000	0,000000	1735502620,653087	0,000000
381988,000000	2766,354010	1717,843115	-1050,457358	3,688037	8,884817	0,800937	-30,826777	-77,458099	0,000000	0,000000	1735502620,655087	0,000000
381989,000000	2764,873207	1718,197018	-1048,492268	3,455207	8,745119	0,745058	-31,348318	-77,271834	0,000000	0,000000	1735502620,657087	0,000000
381990,000000	2757,515758	1716,399565	-1043,053344	3,241003	8,456409	0,335276	-31,655654	-77,364966	0,000000	0,000000	1735502620,659087	0,000000
381991,000000	2744,067460	1711,165532	-1034,885645	3,045425	8,223578	0,093132	-31,460077	-78,026205	0,000000	0,000000	1735502620,661087	0,000000
381992,000000	2732,006833	1704,841852	-1029,139385	3,119931	8,204952	0,260770	-31,292439	-76,713040	0,000000	0,000000	1735502620,663087	0,000000
381993,000000	2727,881074	1700,595021	-1029,260457	3,501773	8,419156	0,419095	-31,236559	-77,961013	0,000000	0,000000	1735502620,665087	0,000000
381994,000000	2730,516717	1699,673012	-1032,734290	3,743917	8,614734	0,772998	-30,957162	-78,137964	0,000000	0,000000	1735502620,667087	0,000000
381995,000000	2742,074430	1702,820882	-1041,144133	4,125759	9,126961	1,192093	-30,789524	-79,376623	0,000000	0,000000	1735502620,669087	0,000000
381996,000000	2758,232877	1709,470525	-1050,746068	4,526228	9,248033	1,434237	-30,659139	-78,864396	0,000000	0,000000	1735502620,671087	0,000000
381997,000000	2769,334242	1715,924591	-1055,207103	4,135072	9,126961	1,071021	-30,593947	-77,495351	0,000000	0,000000	1735502620,673087	0,000000
381998,000000	2770,544961	1718,467101	-1053,921878	4,023314	8,912757	0,866130	-31,124800	-77,560544	0,000000	0,000000	1735502620,675087	0,000000
381999,000000	2769,175917	1719,370484	-1052,059233	2,263114	8,270144	0,679865	-31,217933	-75,651333	0,000000	0,000000	1735502620,677087	0,000000
382000,000000	2763,429657	1718,299463	-1047,113910	3,194436	8,381903	0,465661	-31,199306	-77,933073	0,000000	0,000000	1735502620,679087	0,000000
382001,000000	2750,586718	1713,614911	-1038,890332	3,185123	7,990748	0,009313	-31,776726	-78,734010	0,000000	0,000000	1735502620,681087	0,000000
382002,000000	2736,598253	1707,319170	-1031,272113	2,849847	7,934868	0,000000	-31,078234	-75,735152	0,000000	0,000000	1735502620,682087	0,000000
382003,000000	2730,181441	1702,886075	-1029,297709	3,632158	8,651987	0,465661	-30,864030	-77,188015	0,000000	0,000000	1735502620,684087	0,000000
382004,000000	2731,457353	1701,656729	-1031,775028	3,697351	8,717179	0,791624	-31,115487	-77,439472	0,000000	0,000000	1735502620,686087	0,000000
382005,000000	2740,863711	1703,780144	-1038,936898	4,051253	9,061769	1,210719	-30,854717	-76,889992	0,000000	0,000000	1735502620,688087	0,000000
382006,000000	2756,677568	1709,954813	-1048,780978	4,610047	9,294599	1,452863	-30,566007	-75,874850	0,000000	0,000000	1735502620,690087	0,000000
382007,000000	2770,442516	1717,014238	-1055,337489	4,442409	9,275973	1,182780	-30,500814	-76,266006	0,000000	0,000000	1735502620,692087	0,000000
382008,000000	2772,957087	1720,553264	-1054,331660	4,023314	8,810312	0,959262	-30,770898	-75,977296	0,000000	0,000000	1735502620,694087	0,000000
382009,000000	2772,528678	1721,568406	-1052,841544	3,967434	8,763745	1,024455	-31,106174	-78,845769	0,000000	0,000000	1735502620,696087	0,000000
382010,000000	2768,374979	1721,009612	-1049,339771	3,660098	8,512288	0,530854	-31,655654	-77,066943	0,000000	0,000000	1735502620,698087	0,000000
382011,000000	2756,454051	1717,135310	-1041,302457	3,436580	8,316711	0,176951	-31,460077	-77,160075	0,000000	0,000000	1735502620,700087	0,000000
382012,000000	2742,493525	1711,118966	-1033,339649	3,119931	8,372590	0,130385	-31,702220	-76,936558	0,000000	0,000000	1735502620,702087	0,000000
382013,000000	2733,888105	1705,493778	-1030,294225	3,380701	8,419156	0,288710	-31,469390	-76,992437	0,000000	0,000000	1735502620,704087	0,000000
382014,000000	2734,027803	1703,435555	-1032,501459	3,790483	8,773059	0,633299	-31,339005	-79,339370	0,000000	0,000000	1735502620,706087	0,000000
382015,000000	2741,375938	1705,056056	-1038,480550	4,721805	9,201467	0,968575	-30,491501	-79,264864	0,000000	0,000000	1735502620,708087	0,000000
382016,000000	2756,454051	1710,550860	-1048,026606	4,097819	9,154901	1,210719	-30,202791	-79,432502	0,000000	0,000000	1735502620,710087	0,000000
382017,000000	2771,830186	1717,675477	-1056,399196	1,844019	8,894131	1,220033	-30,705705	-75,297430	0,000000	0,000000	1735502620,712087	0,000000
382018,000000	2776,971087	1722,685993	-1056,427136	4,228204	9,015203	0,977889	-30,910596	-77,048317	0,000000	0,000000	1735502620,714087	0,000000
382019,000000	2776,691690	1724,259928	-1054,964960	3,753230	8,493662	0,437722	-30,882657	-77,430159	0,000000	0,000000	1735502620,716087	0,000000
382020,000000	2773,646265	1724,315807	-1052,338630	3,064051	8,773059	0,586733	-31,553209	-75,725839	0,000000	0,000000	1735502620,718087	0,000000
382021,000000	2763,802186	1721,186563	-1044,655219	3,315508	8,353963	0,214204	-31,599775	-77,821314	0,000000	0,000000	1735502620,720087	0,000000
382022,000000	2749,338746	1715,011895	-1036,208123	3,073364	8,288771	0,046566	-32,009557	-77,849254	0,000000	0,000000	1735502620,722087	0,000000
382023,000000	2738,554031	1708,930358	-1031,346619	3,315508	8,204952	0,400469	-31,888485	-78,259036	0,000000	0,000000	1735502620,723087	0,000000
382024,000000	2736,886963	1705,521718	-1033,283770	3,669411	8,475035	0,521541	-31,394884	-78,734010	0,000000	0,000000	1735502620,725087	0,000000
382025,000000	2741,785720	1705,531031	-1038,238406	3,799796	8,996576	0,838190	-31,106174	-78,119338	0,000000	0,000000	1735502620,727087	0,000000
382026,000000	2755,569294	1709,675416	-1047,784463	4,284084	9,266660	1,406297	-30,733645	-77,914447	0,000000	0,000000	1735502620,729087	0,000000
382027,000000	2771,941945	1717,032865	-1056,874171	4,535541	9,369105	1,601875	-30,305237	-77,020377	0,000000	0,000000	1735502620,731087	0,000000
382028,000000	2780,118957	1722,555608	-1059,500501	4,153699	9,043142	1,145527	-30,724332	-75,325370	0,000000	0,000000	1735502620,733087	0,000000
382029,000000	2780,640498	1724,585891	-1057,991758	4,060566	8,959323	0,828877	-31,255186	-78,594312	0,000000	0,000000	1735502620,735087	0,000000
382030,000000	2778,768539	1725,107431	-1055,588946	3,837049	8,819625	0,717118	-31,432137	-77,709556	0,000000	0,000000	1735502620,737087	0,000000
382031,000000	2771,019936	1722,928137	-1049,870625	3,362074	8,326024	0,325963	-31,646341	-77,225268	0,000000	0,000000	1735502620,739087	0,000000
382032,000000	2757,245675	1717,470586	-1041,563228	3,157184	8,251518	0,018626	-31,897798	-77,346340	0,000000	0,000000	1735502620,741087	0,000000
382033,000000	2745,203674	1711,472869	-1035,686582	3,250316	8,279458	0,176951	-31,469390	-78,529119	0,000000	0,000000	1735502620,743087	0,000000
382034,000000	2741,720527	1707,328483	-1036,264002	3,576279	8,456409	0,447035	-31,217933	-77,746809	0,000000	0,000000	1735502620,745087	0,000000
382035,000000	2744,374797	1706,238836	-1040,101051	3,958121	8,875504	0,810251	-30,966476	-77,765435	0,000000	0,000000	1735502620,747087	0,000000
382036,000000	2756,584436	1709,461212	-1049,004495	4,423782	9,285286	1,406297	-30,789524	-78,603625	0,000000	0,000000	1735502620,749087	0,000000
382037,000000	2773,618326	1716,343686	-1059,081405	4,572794	9,369105	1,490116	-30,864030	-78,305602	0,000000	0,000000	1735502620,751087	0,000000
382038,000000	2784,514800	1722,779125	-1063,635573	4,284084	9,126961	1,238659	-30,696392	-77,635050	0,000000	0,000000	1735502620,753087	0,000000
382039,000000	2785,734832	1725,396141	-1062,247902	4,060566	8,922070	0,912696	-30,947849	-76,824799	0,000000	0,000000	1735502620,755087	0,000000
382040,000000	2784,542739	1726,215705	-1060,301438	3,892928	8,838251	0,856817	-31,124800	-77,746809	0,000000	0,000000	1735502620,757087	0,000000
382041,000000	2778,219059	1724,576578	-1055,616885	3,604218	8,540228	0,577420	-31,767413	-78,007579	0,000000	0,000000	1735502620,759087	0,000000
382042,000000	2765,115350	1720,031723	-1047,011465	3,241003	8,167699	0,316650	-32,102689	-75,902790	0,000000	0,000000	1735502620,761087	0,000000
382043,000000	2751,713619	1713,670790	-1039,989293	3,408641	8,074567	0,149012	-32,102689	-77,486038	0,000000	0,000000	1735502620,763087	0,000000
382044,000000	2745,278180	1708,799973	-1038,443297	3,809109	8,447096	0,363216	-31,627715	-78,529119	0,000000	0,000000	1735502620,765087	0,000000
382045,000000	2746,693790	1707,300544	-1041,181386	3,855675	8,661300	0,689179	-31,143427	-78,352168	0,000000	0,000000	1735502620,766087	0,000000
382046,000000	2756,081522	1709,517092	-1048,473641	4,237518	9,043142	1,210719	-30,724332	-78,352168	0,000000	0,000000	1735502620,768087	0,000000
382047,000000	2771,876752	1715,263352	-1058,522612	4,135072	9,536743	1,601875	-30,575320	-77,551231	0,000000	0,000000	1735502620,770087	0,000000
382048,000000	2785,390243	1722,481102	-1064,911485	4,097819	9,359792	1,266599	-30,994415	-77,895820	0,000000	0,000000	1735502620,772087	0,000000
382049,000000	2787,727863	1726,215705	-1063,514501	4,107133	9,033829	0,819564	-31,189993	-77,560544	0,000000	0,000000	1735502620,774087	0,000000
382050,000000	2786,675468	1727,296039	-1061,325893	4,172325	8,996576	0,894070	-31,553209	-75,707212	0,000000	0,000000	1735502620,776087	0,000000
382051,000000	2781,460062	1726,597548	-1056,920737	3,250316	8,810312	0,623986	-31,851232	-76,470897	0,000000	0,000000	1735502620,778087	0,000000
382052,000000	2769,231796	1722,415909	-1048,743725	3,259629	8,204952	0,167638	-31,953678	-73,928386	0,000000	0,000000	1735502620,780087	0,000000
382053,000000	2754,377201	1716,017723	-1040,389761	3,213063	7,692724	0,027940	-31,786039	-75,381249	0,000000	0,000000	1735502620,782087	0,000000
382054,000000	2745,194361	1709,889621	-1037,213951	2,626330	8,419156	0,502914	-31,888485	-76,191500	0,000000	0,000000	1735502620,784087	0,000000
382055,000000	2744,756639	1707,402989	-1039,328054	3,427267	8,614734	0,791624	-31,236559	-77,476725	0,000000	0,000000	1735502620,786087	0,000000
382056,000000	2750,884742	1708,101481	-1044,711098	4,302710	8,987263	0,922009	-31,199306	-79,562888	0,000000	0,000000	1735502620,788087	0,000000
382057,000000	2765,310928	1713,018864	-1054,164022	4,628673	9,238720	1,424924	-30,705705	-79,050660	0,000000	0,000000	1735502620,790087	0,000000
382058,000000	2780,258656	1720,208675	-1061,912626	4,461035	9,192154	1,378357	-30,938536	-76,480210	0,000000	0,000000	1735502620,792087	0,000000
382059,000000	2784,347162	1724,837348	-1061,633229	3,613532	8,931383	1,061708	-30,826777	-75,884163	0,000000	0,000000	1735502620,794087	0,000000
382060,000000	2782,922238	1725,871116	-1058,988273	3,892928	8,605421	0,977889	-31,301752	-75,902790	0,000000	0,000000	1735502620,796087	0,000000
382061,000000	2778,666094	1725,535840	-1055,141911	3,660098	8,577481	0,745058	-31,515956	-76,172873	0,000000	0,000000	1735502620,798087	0,000000
382062,000000	2767,713740	1722,062007	-1047,635451	3,334135	8,288771	0,391155	-31,692907	-77,132136	0,000000	0,000000	1735502620,800087	0,000000
382063,000000	2751,909196	1715,207472	-1038,545743	3,296882	8,204952	0,139698	-31,879172	-76,172873	0,000000	0,000000	1735502620,802087	0,000000
382064,000000	2739,885822	1708,315685	-1033,423468	3,399327	8,353963	0,363216	-31,972304	-77,709556	0,000000	0,000000	1735502620,804087	0,000000
382065,000000	2737,287432	1704,692841	-1034,485176	3,585592	8,670613	0,894070	-31,776726	-79,143792	0,000000	0,000000	1735502620,806087	0,000000
382066,000000	2741,180360	1703,985035	-1039,141789	3,864989	8,977950	1,182780	-31,376258	-76,526776	0,000000	0,000000	1735502620,807087	0,000000
382067,000000	2754,349262	1707,822084	-1048,473641	4,330650	9,303913	1,434237	-30,929223	-76,843426	0,000000	0,000000	1735502620,809087	0,000000
382068,000000	2769,678831	1714,397222	-1057,200134	4,330650	9,248033	1,387671	-30,873343	-77,271834	0,000000	0,000000	1735502620,811087	0,000000
382069,000000	2776,719630	1719,631255	-1058,988273	4,014000	8,931383	1,108274	-31,013042	-75,688586	0,000000	0,000000	1735502620,813087	0,000000
382070,000000	2776,142210	1721,419394	-1056,641340	3,799796	8,838251	1,098961	-31,329691	-75,707212	0,000000	0,000000	1735502620,815087	0,000000
382071,000000	2773,329616	1721,596345	-1053,763554	3,660098	8,661300	0,819564	-31,562522	-76,144934	0,000000	0,000000	1735502620,817087	0,000000
382072,000000	2764,938399	1719,240099	-1047,635451	3,371388	8,465722	0,456348	-31,832606	-75,576827	0,000000	0,000000	1735502620,819087	0,000000
382073,000000	2750,279382	1713,354141	-1038,815826	3,213063	8,223578	0,167638	-32,065436	-74,496493	0,000000	0,000000	1735502620,821087	0,000000
382074,000000	2737,119794	1706,508920	-1032,566652	3,287569	8,232892	0,260770	-31,441450	-75,539574	0,000000	0,000000	1735502620,823087	0,000000
382075,000000	2732,556313	1701,628789	-1032,799482	3,483146	8,447096	0,419095	-31,329691	-79,534948	0,000000	0,000000	1735502620,825087	0,000000
382076,000000	2735,145390	1700,520515	-1036,562026	3,883615	8,763745	0,717118	-31,571835	-78,678131	0,000000	0,000000	1735502620,827087	0,000000
382077,000000	2746,544778	1703,239977	-1045,186073	4,358590	9,099022	1,406297	-30,677766	-77,839941	0,000000	0,000000	1735502620,829087	0,000000
382078,000000	2762,451768	1709,489152	-1054,760069	4,647300	9,238720	1,620501	-30,603260	-76,545402	0,000000	0,000000	1735502620,831087	0,000000
382079,000000	2772,705629	1715,933904	-1058,680937	4,088506	8,968636	1,303852	-31,013042	-77,467412	0,000000	0,000000	1735502620,833087	0,000000
382080,000000	2773,534507	1718,634740	-1056,836918	3,762543	8,773059	1,098961	-31,124800	-77,243894	0,000000	0,000000	1735502620,835087	0,000000
382081,000000	2772,072330	1719,426364	-1054,555178	3,864989	8,828938	0,717118	-31,339005	-78,203157	0,000000	0,000000	1735502620,837087	0,000000
382082,000000	2765,506506	1717,731357	-1049,628481	3,296882	8,391216	0,260770	-31,515956	-78,501180	0,000000	0,000000	1735502620,839087	0,000000
382083,000000	2752,086148	1712,776721	-1041,144133	3,101304	8,121133	0,000000	-31,907111	-78,119338	0,000000	0,000000	1735502620,841087	0,000000
382084,000000	2738,200128	1705,624163	-1034,382731	3,166497	8,093193	0,065193	-31,711534	-76,461583	0,000000	0,000000	1735502620,843087	0,000000
382085,000000	2731,569111	1700,147986	-1033,302397	3,529713	8,204952	0,493601	-31,488016	-77,579170	0,000000	0,000000	1735502620,845087	0,000000
382086,000000	2732,491121	1698,341221	-1036,077738	3,734604	8,391216	0,558794	-30,770898	-77,635050	0,000000	0,000000	1735502620,847087	0,000000
382087,000000	2741,925418	1700,352877	-1043,612137	3,799796	8,456409	0,922009	-30,454248	-78,054145	0,000000	0,000000	1735502620,848087	0,000000
382088,000000	2758,204937	1706,592739	-1053,642482	4,479662	9,611249	1,667067	-30,454248	-77,597797	0,000000	0,000000	1735502620,850087	0,000000
382089,000000	2771,876752	1713,996753	-1059,919596	4,321337	9,648502	1,378357	-30,389056	-78,352168	0,000000	0,000000	1735502620,852087	0,000000
382090,000000	2773,804590	1717,628911	-1058,056951	3,837049	9,052455	0,940636	-30,715019	-77,951699	0,000000	0,000000	1735502620,854087	0,000000
382091,000000	2772,798762	1718,606800	-1055,980101	3,874302	8,810312	0,866130	-30,770898	-79,004094	0,000000	0,000000	1735502620,856087	0,000000
382092,000000	2768,076956	1717,824489	-1052,077860	3,660098	8,754432	0,661239	-31,050295	-76,815486	0,000000	0,000000	1735502620,858087	0,000000
382093,000000	2756,044269	1713,763922	-1044,049859	3,241003	8,279458	0,102445	-31,376258	-76,182187	0,000000	0,000000	1735502620,860087	0,000000
382094,000000	2740,900964	1706,779003	-1035,872847	3,390014	8,028001	-0,037253	-31,664968	-77,253208	0,000000	0,000000	1735502620,862087	0,000000
382095,000000	2731,438726	1700,362191	-1032,948494	3,715977	8,195639	0,298023	-31,460077	-78,100711	0,000000	0,000000	1735502620,864087	0,000000
382096,000000	2731,224522	1698,033884	-1035,071909	3,864989	8,596107	0,642613	-31,050295	-78,817829	0,000000	0,000000	1735502620,866087	0,000000
382097,000000	2738,572657	1699,123532	-1041,432843	4,153699	9,099022	1,024455	-30,770898	-77,476725	0,000000	0,000000	1735502620,868087	0,000000
382098,000000	2753,958106	1704,683527	-1051,146537	4,656613	9,434298	1,387671	-30,668452	-78,342855	0,000000	0,000000	1735502620,870087	0,000000
382099,000000	2768,700942	1712,255180	-1058,410853	4,572794	9,480864	1,285225	-30,538067	-79,181045	0,000000	0,000000	1735502620,872087	0,000000
382100,000000	2773,115411	1716,744155	-1058,205962	4,190952	9,005889	1,108274	-30,715019	-77,523291	0,000000	0,000000	1735502620,874087	0,000000
382101,000000	2772,761509	1718,187705	-1056,399196	4,041940	8,922070	0,810251	-30,612573	-77,942386	0,000000	0,000000	1735502620,876087	0,000000
382102,000000	2769,436687	1718,187705	-1052,990556	3,799796	8,577481	0,568107	-31,134114	-78,072771	0,000000	0,000000	1735502620,878087	0,000000
382103,000000	2758,586779	1714,974642	-1045,409590	3,436580	8,232892	0,270084	-31,646341	-77,048317	0,000000	0,000000	1735502620,880087	0,000000
382104,000000	2743,350342	1708,511263	-1036,738977	3,315508	8,158386	0,093132	-31,646341	-76,293945	0,000000	0,000000	1735502620,882087	0,000000
382105,000000	2732,025459	1701,675355	-1032,333821	4,004687	8,745119	0,484288	-31,776726	-76,889992	0,000000	0,000000	1735502620,884087	0,000000
382106,000000	2729,976550	1698,145643	-1033,684239	3,790483	8,745119	0,670552	-31,348318	-77,495351	0,000000	0,000000	1735502620,886087	0,000000
382107,000000	2734,530717	1698,052511	-1038,443297	4,032627	9,099022	0,903383	-31,050295	-77,132136	0,000000	0,000000	1735502620,888087	0,000000
382108,000000	2748,575062	1702,466980	-1048,054546	4,507601	9,350479	1,536682	-30,342489	-77,690929	0,000000	0,000000	1735502620,890087	0,000000
382109,000000	2765,441313	1709,889621	-1057,572663	4,544854	9,294599	1,545995	-30,025840	-78,631565	0,000000	0,000000	1735502620,891087	0,000000
382110,000000	2773,487940	1715,701073	-1059,751958	4,237518	9,126961	1,015142	-30,649826	-76,182187	0,000000	0,000000	1735502620,893087	0,000000
382111,000000	2773,776650	1717,852429	-1057,889313	3,995374	9,108335	0,735745	-30,854717	-77,234581	0,000000	0,000000	1735502620,895087	0,000000
382112,000000	2771,550789	1718,141139	-1055,328175	3,855675	8,819625	0,726432	-31,087548	-76,824799	0,000000	0,000000	1735502620,897087	0,000000
382113,000000	2762,861550	1715,850085	-1048,920676	3,315508	8,372590	0,474975	-31,506643	-75,697899	0,000000	0,000000	1735502620,899087	0,000000
382114,000000	2747,932449	1709,787175	-1040,073112	3,194436	8,149073	0,111759	-31,441450	-76,536089	0,000000	0,000000	1735502620,901087	0,000000
382115,000000	2735,350281	1702,932641	-1034,336165	3,427267	8,316711	0,158325	-31,515956	-77,895820	0,000000	0,000000	1735502620,903087	0,000000
382116,000000	2731,550485	1698,648557	-1034,820452	3,557652	8,540228	0,521541	-31,497329	-78,054145	0,000000	0,000000	1735502620,905087	0,000000
382117,000000	2734,903246	1697,978005	-1038,787887	3,743917	8,903444	0,894070	-31,255186	-75,940043	0,000000	0,000000	1735502620,907087	0,000000
382118,000000	2747,410908	1701,088622	-1048,203558	4,116446	9,052455	1,294538	-30,463561	-77,430159	0,000000	0,000000	1735502620,909087	0,000000
382119,000000	2764,090896	1707,971096	-1057,935879	4,386529	9,350479	1,592562	-30,454248	-78,706071	0,000000	0,000000	1735502620,911087	0,000000
382120,000000	2774,531022	1714,546233	-1061,903313	4,312024	8,977950	1,294538	-30,947849	-78,780577	0,000000	0,000000	1735502620,913087	0,000000
382121,000000	2775,518224	1717,014238	-1060,422510	3,864989	9,099022	0,987202	-30,938536	-76,144934	0,000000	0,000000	1735502620,915087	0,000000
382122,000000	2773,767337	1717,573032	-1058,103517	3,864989	8,940697	0,875443	-31,217933	-77,355653	0,000000	0,000000	1735502620,917087	0,000000
382123,000000	2766,875550	1715,794206	-1052,953303	3,594905	8,596107	0,586733	-31,348318	-76,871365	0,000000	0,000000	1735502620,919087	0,000000
382124,000000	2752,859145	1710,494980	-1044,403762	3,203750	8,307397	0,307336	-31,590462	-76,442957	0,000000	0,000000	1735502620,921087	0,000000
382125,000000	2738,777548	1703,267917	-1037,409529	3,315508	8,279458	0,111759	-31,311065	-75,930730	0,000000	0,000000	1735502620,923087	0,000000
382126,000000	2732,640132	1698,574051	-1035,975292	3,576279	8,605421	0,307336	-31,376258	-77,486038	0,000000	0,000000	1735502620,925087	0,000000
382127,000000	2733,981237	1696,888357	-1038,992777	3,883615	8,847564	0,651926	-30,929223	-77,672303	0,000000	0,000000	1735502620,927087	0,000000
382128,000000	2744,132653	1698,927954	-1047,113910	4,153699	9,341165	1,266599	-30,519441	-75,642020	0,000000	0,000000	1735502620,929087	0,000000
382129,000000	2760,468051	1705,475152	-1056,976616	3,688037	9,555370	1,629815	-30,277297	-76,154247	0,000000	0,000000	1735502620,931087	0,000000
382130,000000	2773,748711	1712,823287	-1063,114032	3,483146	9,192154	1,266599	-30,277297	-75,232238	0,000000	0,000000	1735502620,932087	0,000000
382131,000000	2775,480971	1716,343686	-1061,353832	3,818423	8,959323	1,071021	-30,826777	-76,824799	0,000000	0,000000	1735502620,934087	0,000000
382132,000000	2774,549648	1717,172563	-1059,379429	3,697351	8,773059	0,931323	-30,780211	-76,945871	0,000000	0,000000	1735502620,936087	0,000000
382133,000000	2769,697458	1716,241241	-1055,430621	3,604218	8,642673	0,512227	-31,217933	-78,100711	0,000000	0,000000	1735502620,938087	0,000000
382134,000000	2757,143229	1711,845398	-1047,393307	3,352761	8,177012	0,158325	-31,581149	-76,387078	0,000000	0,000000	1735502620,940087	0,000000
382135,000000	2742,251381	1704,776660	-1039,467752	3,259629	8,260831	0,176951	-31,217933	-75,651333	0,000000	0,000000	1735502620,942087	0,000000
382136,000000	2733,394504	1698,816195	-1036,627218	3,324822	8,400530	0,474975	-31,031668	-76,750293	0,000000	0,000000	1735502620,944087	0,000000
382137,000000	2733,515576	1696,348190	-1039,113849	3,613532	8,605421	0,698492	-31,050295	-77,812001	0,000000	0,000000	1735502620,946087	0,000000
382138,000000	2740,593627	1697,372645	-1045,167446	4,135072	8,987263	1,080334	-30,584633	-76,247379	0,000000	0,000000	1735502620,948087	0,000000
382139,000000	2755,876631	1702,690497	-1055,067405	4,395843	9,462237	1,378357	-30,519441	-77,933073	0,000000	0,000000	1735502620,950087	0,000000
382140,000000	2771,168947	1710,280776	-1062,862575	4,479662	9,452924	1,527369	-30,566007	-78,165904	0,000000	0,000000	1735502620,952087	0,000000
382141,000000	2775,639296	1714,825630	-1062,741503	4,097819	9,080395	1,164153	-30,817464	-77,337027	0,000000	0,000000	1735502620,954087	0,000000
382142,000000	2775,248140	1716,241241	-1060,785726	3,790483	8,968636	1,052395	-31,031668	-77,662989	0,000000	0,000000	1735502620,956087	0,000000
382143,000000	2771,010622	1715,803519	-1057,125628	3,641471	8,856878	0,558794	-31,301752	-78,659505	0,000000	0,000000	1735502620,958087	0,000000
382144,000000	2759,993076	1712,441444	-1049,442217	3,129244	8,549541	0,167638	-31,469390	-77,513978	0,000000	0,000000	1735502620,960087	0,000000
382145,000000	2744,989470	1706,108451	-1040,771604	3,082678	8,279458	0,000000	-31,245872	-75,530261	0,000000	0,000000	1735502620,962087	0,000000
382146,000000	2733,999863	1699,840650	-1035,947353	3,203750	8,484349	0,223517	-31,171367	-75,949356	0,000000	0,000000	1735502620,964087	0,000000
382147,000000	2732,072026	1696,553081	-1037,362963	3,492460	8,633360	0,568107	-30,845404	-76,200813	0,000000	0,000000	1735502620,966087	0,000000
382148,000000	2736,747265	1696,543768	-1042,122021	3,771856	9,015203	0,959262	-31,106174	-77,690929	0,000000	0,000000	1735502620,968087	0,000000
382149,000000	2750,810236	1701,069996	-1051,658764	4,367903	9,527430	1,369044	-30,854717	-79,227611	0,000000	0,000000	1735502620,970087	0,000000
382150,000000	2766,977996	1708,343625	-1060,599461	4,377216	9,527430	1,592562	-30,659139	-77,327713	0,000000	0,000000	1735502620,972087	0,000000
382151,000000	2773,301676	1713,596284	-1061,689109	4,116446	8,950010	1,182780	-31,078234	-77,411532	0,000000	0,000000	1735502620,973087	0,000000
382152,000000	2773,134038	1715,617254	-1059,453934	3,930181	8,940697	0,940636	-31,236559	-78,780577	0,000000	0,000000	1735502620,975087	0,000000
382153,000000	2770,144492	1715,663821	-1056,473702	3,827736	8,800998	0,912696	-31,245872	-75,604767	0,000000	0,000000	1735502620,977087	0,000000
382154,000000	2761,213109	1713,018864	-1050,103456	3,408641	8,521602	0,335276	-31,357631	-76,582655	0,000000	0,000000	1735502620,979087	0,000000
382155,000000	2746,162936	1706,862822	-1041,237265	3,119931	8,204952	-0,018626	-31,832606	-76,293945	0,000000	0,000000	1735502620,981087	0,000000
382156,000000	2732,938156	1699,849963	-1035,118476	2,877787	8,307397	0,195578	-31,683594	-75,967982	0,000000	0,000000	1735502620,983087	0,000000
382157,000000	2728,980035	1695,649698	-1035,416499	3,324822	8,279458	0,419095	-31,413510	-78,147277	0,000000	0,000000	1735502620,985087	0,000000
382158,000000	2731,764689	1694,802195	-1038,955525	3,585592	8,856878	0,894070	-31,301752	-77,560544	0,000000	0,000000	1735502620,987087	0,000000
382159,000000	2743,825316	1698,229462	-1047,570258	4,023314	9,275973	1,387671	-30,668452	-77,346340	0,000000	0,000000	1735502620,989087	0,000000
382160,000000	2760,598436	1705,642790	-1056,930050	4,349276	9,443611	1,732260	-30,538067	-76,601282	0,000000	0,000000	1735502620,991087	0,000000
382161,000000	2771,606669	1712,739468	-1060,673967	3,995374	9,303913	1,471490	-30,947849	-77,420846	0,000000	0,000000	1735502620,993087	0,000000
382162,000000	2772,584558	1715,663821	-1058,839262	3,762543	8,838251	1,201406	-30,901283	-77,839941	0,000000	0,000000	1735502620,995087	0,000000
382163,000000	2770,805731	1716,352999	-1056,296751	3,660098	8,847564	0,903383	-30,957162	-78,324229	0,000000	0,000000	1735502620,997087	0,000000
382164,000000	2763,913944	1714,639366	-1051,174477	3,464520	8,521602	0,521541	-30,975789	-76,256692	0,000000	0,000000	1735502620,999087	0,000000
382165,000000	2749,916166	1708,976924	-1042,773947	3,110617	8,186325	0,158325	-31,301752	-77,756122	0,000000	0,000000	1735502621,001087	0,000000
382166,000000	2735,275775	1701,684669	-1035,463065	3,166497	8,242205	0,242144	-31,255186	-75,595453	0,000000	0,000000	1735502621,003087	0,000000
382167,000000	2729,147673	1696,469262	-1034,503803	3,343448	8,363277	0,633299	-31,227246	-77,476725	0,000000	0,000000	1735502621,005087	0,000000
382168,000000	2730,628476	1695,239916	-1037,335023	3,771856	8,763745	0,735745	-31,208619	-77,346340	0,000000	0,000000	1735502621,007087	0,000000
382169,000000	2740,724012	1697,633415	-1045,037061	4,181638	9,164214	1,210719	-30,426309	-77,886507	0,000000	0,000000	1735502621,009087	0,000000
382170,000000	2757,366747	1704,450697	-1054,657623	4,461035	9,331852	1,471490	-30,007213	-78,389421	0,000000	0,000000	1735502621,011087	0,000000
382171,000000	2770,787105	1711,649820	-1060,934737	4,256144	9,164214	1,220033	-30,463561	-77,094883	0,000000	0,000000	1735502621,013087	0,000000
382172,000000	2772,565931	1715,058461	-1059,398055	3,762543	8,894131	1,071021	-30,808151	-78,780577	0,000000	0,000000	1735502621,015087	0,000000
382173,000000	2771,392465	1716,120169	-1057,200134	3,762543	8,698553	0,838190	-30,668452	-76,992437	0,000000	0,000000	1735502621,016087	0,000000
382174,000000	2765,851095	1714,881510	-1053,055748	3,501773	8,614734	0,530854	-31,171367	-76,200813	0,000000	0,000000	1735502621,018087	0,000000
382175,000000	2753,045410	1710,085198	-1044,971868	3,185123	8,177012	0,232831	-31,245872	-76,266006	0,000000	0,000000	1735502621,020087	0,000000
382176,000000	2738,395706	1703,137532	-1037,279144	3,213063	8,158386	0,195578	-31,348318	-76,089054	0,000000	0,000000	1735502621,022087	0,000000
382177,000000	2729,929984	1697,484404	-1034,494489	3,241003	8,419156	0,316650	-31,189993	-76,303259	0,000000	0,000000	1735502621,024087	0,000000
382178,000000	2730,125561	1694,988459	-1037,055627	3,473833	8,679926	0,605360	-31,236559	-77,802688	0,000000	0,000000	1735502621,026087	0,000000
382179,000000	2737,427130	1696,087420	-1043,165103	3,855675	9,061769	1,117587	-30,519441	-77,197328	0,000000	0,000000	1735502621,028087	0,000000
382180,000000	2753,222361	1702,196896	-1052,925363	4,339963	9,313226	1,378357	-30,519441	-78,193843	0,000000	0,000000	1735502621,030087	0,000000
382181,000000	2768,309787	1709,861681	-1060,375944	4,451722	9,573996	1,359731	-30,649826	-76,908618	0,000000	0,000000	1735502621,032087	0,000000
382182,000000	2772,584558	1714,415848	-1060,115173	3,874302	9,294599	1,182780	-30,659139	-76,359138	0,000000	0,000000	1735502621,034087	0,000000
382183,000000	2771,941945	1715,561375	-1058,261842	3,762543	8,922070	1,024455	-30,603260	-76,014549	0,000000	0,000000	1735502621,036087	0,000000
382184,000000	2767,900005	1714,881510	-1054,853201	3,650784	8,866191	0,596046	-31,096861	-76,647848	0,000000	0,000000	1735502621,038087	0,000000
382185,000000	2756,603062	1711,137593	-1047,505066	3,362074	8,568168	0,363216	-31,488016	-75,651333	0,000000	0,000000	1735502621,040087	0,000000
382186,000000	2741,422504	1704,357564	-1038,964838	3,287569	8,186325	0,158325	-31,376258	-78,408048	0,000000	0,000000	1735502621,042087	0,000000
382187,000000	2730,088308	1697,605476	-1034,513116	3,436580	8,437783	0,419095	-31,432137	-78,734010	0,000000	0,000000	1735502621,044087	0,000000
382188,000000	2728,682011	1694,317907	-1036,301255	3,539026	8,521602	0,540167	-30,994415	-77,262521	0,000000	0,000000	1735502621,046087	0,000000
382189,000000	2733,534202	1694,094390	-1041,376963	3,809109	8,903444	0,987202	-30,733645	-78,817829	0,000000	0,000000	1735502621,048087	0,000000
382190,000000	2747,578546	1698,695123	-1050,718129	4,488975	9,322539	1,527369	-30,407682	-76,964498	0,000000	0,000000	1735502621,050087	0,000000
382191,000000	2763,383090	1706,155017	-1059,183851	4,637986	9,536743	1,527369	-30,416995	-77,094883	0,000000	0,000000	1735502621,052087	0,000000
382192,000000	2770,265564	1711,919904	-1060,254872	4,051253	8,940697	1,052395	-30,305237	-77,364966	0,000000	0,000000	1735502621,054087	0,000000
382193,000000	2769,911662	1713,465899	-1058,345661	3,939494	8,875504	0,996515	-30,985102	-77,085570	0,000000	0,000000	1735502621,056087	0,000000
382194,000000	2766,977996	1713,288948	-1055,523753	3,781170	8,558854	0,679865	-31,301752	-78,929588	0,000000	0,000000	1735502621,057087	0,000000
382195,000000	2758,027986	1710,485667	-1049,414277	3,520399	8,288771	0,512227	-31,944364	-77,020377	0,000000	0,000000	1735502621,059087	0,000000
382196,000000	2743,089572	1704,385504	-1040,762290	3,688037	8,214265	0,223517	-32,270327	-77,122822	0,000000	0,000000	1735502621,061087	0,000000
382197,000000	2730,367705	1697,111875	-1035,146415	3,734604	8,279458	0,288710	-31,758100	-77,681616	0,000000	0,000000	1735502621,063087	0,000000
382198,000000	2726,288512	1692,706719	-1035,500318	3,539026	8,484349	0,484288	-31,664968	-75,921416	0,000000	0,000000	1735502621,065087	0,000000
382199,000000	2729,175612	1691,840589	-1039,355993	3,753230	8,707866	0,875443	-30,891970	-77,458099	0,000000	0,000000	1735502621,067087	0,000000
382200,000000	2741,720527	1695,593819	-1047,961414	4,125759	9,136274	1,285225	-30,351803	-77,476725	0,000000	0,000000	1735502621,069087	0,000000
382201,000000	2758,242190	1702,867448	-1057,265326	4,395843	9,434298	1,480803	-30,016527	-77,309087	0,000000	0,000000	1735502621,071087	0,000000
382202,000000	2768,253908	1709,610224	-1060,664654	4,163012	9,080395	1,238659	-30,202791	-77,532604	0,000000	0,000000	1735502621,073087	0,000000
382203,000000	2768,654376	1712,078229	-1058,606431	3,343448	8,763745	0,717118	-30,742958	-77,774748	0,000000	0,000000	1735502621,075087	0,000000
382204,000000	2766,679972	1712,171361	-1056,334004	3,501773	8,838251	0,726432	-31,022355	-76,778233	0,000000	0,000000	1735502621,077087	0,000000
382205,000000	2759,154886	1709,945500	-1051,295549	2,449378	8,270144	0,474975	-31,273812	-76,964498	0,000000	0,000000	1735502621,079087	0,000000
382206,000000	2745,417878	1704,497263	-1042,932272	3,520399	8,130446	0,279397	-31,758100	-77,933073	0,000000	0,000000	1735502621,081087	0,000000
382207,000000	2732,072026	1697,931439	-1036,226749	3,697351	8,102506	0,381842	-31,832606	-78,119338	0,000000	0,000000	1735502621,083087	0,000000
382208,000000	2725,999802	1692,818478	-1035,034657	3,483146	8,083880	0,577420	-31,273812	-78,268349	0,000000	0,000000	1735502621,085087	0,000000
382209,000000	2728,113905	1691,626385	-1038,406044	3,464520	8,502975	0,922009	-30,836090	-77,011064	0,000000	0,000000	1735502621,087087	0,000000
382210,000000	2738,554031	1694,373786	-1046,052203	3,892928	9,033829	1,396984	-30,687079	-76,582655	0,000000	0,000000	1735502621,089087	0,000000
382211,000000	2754,982561	1701,470464	-1055,495813	4,321337	9,424984	1,499429	-30,659139	-77,094883	0,000000	0,000000	1735502621,091087	0,000000
382212,000000	2768,477425	1709,163189	-1061,288640	4,032627	9,117648	1,303852	-30,761585	-77,504665	0,000000	0,000000	1735502621,093087	0,000000
382213,000000	2770,461142	1712,646335	-1059,845090	3,753230	8,912757	1,071021	-30,733645	-77,513978	0,000000	0,000000	1735502621,095087	0,000000
382214,000000	2769,604325	1713,521779	-1057,954505	3,753230	8,838251	0,875443	-31,245872	-78,789890	0,000000	0,000000	1735502621,097087	0,000000
382215,000000	2764,156088	1712,413505	-1053,670421	3,436580	8,493662	0,577420	-31,683594	-78,622252	0,000000	0,000000	1735502621,098087	0,000000
382216,000000	2751,871943	1707,850024	-1045,800745	2,952293	8,232892	0,400469	-31,758100	-77,094883	0,000000	0,000000	1735502621,100087	0,000000
382217,000000	2737,203613	1700,958237	-1038,108021	3,064051	8,083880	0,335276	-32,223761	-77,495351	0,000000	0,000000	1735502621,102087	0,000000
382218,000000	2728,588879	1694,886014	-1035,658643	3,352761	8,400530	0,428408	-31,683594	-78,231096	0,000000	0,000000	1735502621,104087	0,000000
382219,000000	2729,091793	1692,790538	-1038,340852	3,650784	8,614734	0,791624	-31,432137	-77,979639	0,000000	0,000000	1735502621,106087	0,000000
382220,000000	2737,035975	1694,392413	-1044,571400	4,144385	9,005889	1,089647	-30,640513	-77,253208	0,000000	0,000000	1735502621,108087	0,000000
382221,000000	2753,101289	1700,539142	-1054,415479	4,442409	9,294599	1,536682	-30,482188	-76,629221	0,000000	0,000000	1735502621,110087	0,000000
382222,000000	2768,142149	1708,539203	-1061,595976	4,442409	9,322539	1,471490	-30,566007	-77,839941	0,000000	0,000000	1735502621,112087	0,000000
382223,000000	2772,165462	1712,916419	-1061,130315	3,911555	9,033829	0,875443	-30,957162	-76,061115	0,000000	0,000000	1735502621,114087	0,000000
382224,000000	2771,038562	1713,894308	-1059,062779	3,846362	8,819625	1,024455	-30,891970	-76,610595	0,000000	0,000000	1735502621,116087	0,000000
382225,000000	2766,838297	1713,316888	-1055,505127	3,818423	8,558854	0,670552	-31,031668	-77,662989	0,000000	0,000000	1735502621,118087	0,000000
382226,000000	2756,230533	1709,712669	-1048,417762	3,417954	8,158386	0,288710	-31,609088	-77,430159	0,000000	0,000000	1735502621,120087	0,000000
382227,000000	2741,590142	1703,137532	-1040,343195	3,287569	7,972121	0,130385	-32,298267	-76,945871	0,000000	0,000000	1735502621,122087	0,000000
382228,000000	2730,786800	1696,525142	-1036,273316	3,539026	8,223578	0,419095	-31,674281	-75,800344	0,000000	0,000000	1735502621,124087	0,000000
382229,000000	2729,268745	1693,079248	-1038,284972	3,827736	8,558854	0,558794	-31,581149	-78,119338	0,000000	0,000000	1735502621,126087	0,000000
382230,000000	2734,316513	1693,330705	-1042,857766	4,060566	8,987263	0,987202	-31,143427	-78,249723	0,000000	0,000000	1735502621,128087	0,000000
382231,000000	2748,752013	1698,303968	-1052,226871	4,302710	9,369105	1,415610	-30,733645	-76,508150	0,000000	0,000000	1735502621,130087	0,000000
382232,000000	2765,115350	1705,950126	-1060,981303	4,479662	9,424984	1,527369	-30,538067	-76,852739	0,000000	0,000000	1735502621,132087	0,000000
382233,000000	2771,886066	1711,659133	-1062,108204	4,116446	9,024516	1,015142	-30,929223	-78,408048	0,000000	0,000000	1735502621,134087	0,000000
382234,000000	2771,550789	1713,512465	-1059,779897	3,855675	8,968636	0,782311	-30,826777	-77,653676	0,000000	0,000000	1735502621,136087	0,000000
382235,000000	2768,505365	1713,624224	-1056,790352	3,520399	8,763745	0,922009	-31,329691	-78,314915	0,000000	0,000000	1735502621,138087	0,000000
382236,000000	2759,397030	1710,802317	-1050,354913	3,296882	8,428469	0,530854	-31,637028	-78,305602	0,000000	0,000000	1735502621,139087	0,000000
382237,000000	2744,486555	1704,655588	-1041,740179	3,306195	8,158386	0,111759	-31,515956	-77,337027	0,000000	0,000000	1735502621,141087	0,000000
382238,000000	2731,746063	1697,521657	-1036,170870	3,259629	8,353963	0,307336	-31,767413	-76,014549	0,000000	0,000000	1735502621,143087	0,000000
382239,000000	2728,328109	1693,479717	-1036,785543	3,706664	8,651987	0,670552	-31,497329	-77,262521	0,000000	0,000000	1735502621,145087	0,000000
382240,000000	2731,634304	1692,995429	-1040,538773	4,088506	9,089708	0,894070	-31,422824	-77,625737	0,000000	0,000000	1735502621,147087	0,000000
382241,000000	2743,955702	1696,981490	-1048,892736	4,367903	9,322539	1,341105	-31,087548	-79,097226	0,000000	0,000000	1735502621,149087	0,000000
382242,000000	2760,589123	1704,348251	-1058,159396	4,731119	9,359792	1,564622	-30,836090	-78,957528	0,000000	0,000000	1735502621,151087	0,000000
382243,000000	2770,693973	1711,016521	-1061,726362	5,112961	8,903444	0,968575	-31,264499	-77,197328	0,000000	0,000000	1735502621,153087	0,000000
382244,000000	2771,038562	1713,391393	-1059,584320	4,153699	8,773059	1,089647	-31,162053	-76,778233	0,000000	0,000000	1735502621,155087	0,000000
382245,000000	2769,194543	1713,903621	-1057,162881	4,023314	8,791685	0,922009	-31,273812	-77,895820	0,000000	0,000000	1735502621,157087	0,000000
382246,000000	2762,302756	1712,189987	-1052,087173	3,622845	8,437783	0,568107	-31,301752	-78,463927	0,000000	0,000000	1735502621,159087	0,000000
382247,000000	2748,388797	1706,685871	-1043,723896	3,427267	7,953495	0,009313	-31,664968	-78,314915	0,000000	0,000000	1735502621,161087	0,000000
382248,000000	2734,353766	1699,589193	-1036,934555	4,349276	8,186325	0,083819	-31,655654	-78,873709	0,000000	0,000000	1735502621,163087	0,000000
382249,000000	2728,588879	1694,681123	-1035,965979	3,110617	8,819625	0,596046	-31,618401	-77,364966	0,000000	0,000000	1735502621,165087	0,000000
382250,000000	2730,488777	1693,237573	-1039,169729	3,967434	8,912757	0,689179	-31,059608	-77,942386	0,000000	0,000000	1735502621,167087	0,000000
382251,000000	2741,124481	1695,854589	-1047,132537	4,544854	9,192154	1,322478	-30,566007	-78,678131	0,000000	0,000000	1735502621,169087	0,000000
382252,000000	2757,711336	1702,923328	-1056,492329	4,563481	9,192154	1,620501	-30,612573	-77,374279	0,000000	0,000000	1735502621,171087	0,000000
382253,000000	2770,060673	1710,355282	-1061,614603	4,321337	9,192154	1,490116	-30,621886	-77,234581	0,000000	0,000000	1735502621,173087	0,000000
382254,000000	2771,103755	1713,335514	-1059,714705	4,135072	8,875504	1,005828	-31,106174	-76,415017	0,000000	0,000000	1735502621,175087	0,000000
382255,000000	2770,125866	1714,108512	-1057,917252	4,125759	8,773059	0,763685	-31,162053	-77,327713	0,000000	0,000000	1735502621,177087	0,000000
382256,000000	2765,124664	1713,074744	-1053,856686	3,594905	8,540228	0,577420	-31,162053	-77,756122	0,000000	0,000000	1735502621,179087	0,000000
382257,000000	2752,654254	1708,567142	-1045,968384	3,501773	8,288771	0,204891	-31,357631	-77,662989	0,000000	0,000000	1735502621,181087	0,000000
382258,000000	2737,771720	1701,200381	-1038,303599	3,436580	8,381903	0,167638	-31,115487	-78,417361	0,000000	0,000000	1735502621,182087	0,000000
382259,000000	2728,905529	1694,932580	-1035,649329	3,622845	8,400530	0,530854	-31,618401	-76,862052	0,000000	0,000000	1735502621,184087	0,000000
382260,000000	2729,212865	1693,032682	-1038,080081	3,902242	8,419156	0,698492	-31,245872	-77,234581	0,000000	0,000000	1735502621,186087	0,000000
382261,000000	2736,765891	1694,504172	-1044,245437	4,470348	8,977950	1,173466	-30,957162	-77,458099	0,000000	0,000000	1735502621,188087	0,000000
382262,000000	2752,421424	1700,427383	-1053,819433	4,731119	9,210780	1,555309	-30,761585	-75,735152	0,000000	0,000000	1735502621,190087	0,000000
382263,000000	2767,313272	1708,380878	-1060,878858	4,703179	9,303913	1,564622	-30,361116	-75,912103	0,000000	0,000000	1735502621,192087	0,000000
382264,000000	2771,317959	1712,916419	-1060,413197	4,172325	9,033829	1,201406	-30,631199	-77,411532	0,000000	0,000000	1735502621,194087	0,000000
382265,000000	2770,647407	1714,266837	-1058,345661	4,088506	8,987263	0,949949	-30,966476	-77,784061	0,000000	0,000000	1735502621,196087	0,000000
382266,000000	2766,642720	1713,540405	-1054,899767	3,976747	8,614734	0,754371	-31,497329	-77,700242	0,000000	0,000000	1735502621,198087	0,000000
382267,000000	2755,681053	1709,787175	-1047,728583	3,427267	8,214265	0,325963	-31,776726	-75,791031	0,000000	0,000000	1735502621,200087	0,000000
382268,000000	2740,751952	1703,007147	-1039,523631	3,352761	7,990748	0,121072	-32,139942	-77,281147	0,000000	0,000000	1735502621,202087	0,000000
382269,000000	2729,818225	1696,338877	-1035,323367	3,464520	8,335337	0,242144	-32,000244	-75,986609	0,000000	0,000000	1735502621,204087	0,000000
382270,000000	2728,607506	1693,107188	-1037,484035	3,818423	8,642673	0,754371	-31,813979	-77,160075	0,000000	0,000000	1735502621,206087	0,000000
382271,000000	2733,645961	1693,395898	-1042,187214	3,594905	8,875504	1,005828	-31,441450	-76,256692	0,000000	0,000000	1735502621,208087	0,000000
382272,000000	2748,444676	1698,732376	-1051,845029	5,718321	9,741634	1,732260	-30,463561	-79,153106	0,000000	0,000000	1735502621,210087	0,000000
382273,000000	2764,873207	1706,611365	-1060,198992	4,544854	9,303913	1,629815	-30,314550	-80,075115	0,000000	0,000000	1735502621,212087	0,000000
382274,000000	2771,578729	1712,376252	-1061,158255	4,051253	8,894131	1,043081	-30,985102	-78,426674	0,000000	0,000000	1735502621,214087	0,000000
382275,000000	2771,420404	1714,108512	-1059,360802	4,349276	8,717179	0,912696	-31,227246	-76,740980	0,000000	0,000000	1735502621,216087	0,000000
382276,000000	2769,082785	1714,071259	-1056,920737	4,014000	8,502975	0,735745	-31,292439	-77,513978	0,000000	0,000000	1735502621,218087	0,000000
382277,000000	2760,076895	1711,519435	-1050,401479	3,473833	8,298084	0,447035	-32,009557	-76,778233	0,000000	0,000000	1735502621,220087	0,000000
382278,000000	2745,436504	1705,223694	-1042,038202	3,268942	8,158386	0,167638	-32,009557	-78,277662	0,000000	0,000000	1735502621,222087	0,000000
382279,000000	2733,133733	1698,303968	-1036,664471	3,241003	8,167699	0,223517	-31,525269	-76,927245	0,000000	0,000000	1735502621,223087	0,000000
382280,000000	2729,697153	1694,327220	-1037,279144	3,734604	8,447096	0,605360	-31,236559	-76,629221	0,000000	0,000000	1735502621,225087	0,000000
382281,000000	2733,040601	1693,498343	-1041,423529	3,846362	8,735806	0,940636	-31,264499	-76,275319	0,000000	0,000000	1735502621,227087	0,000000
382282,000000	2745,827660	1697,307453	-1050,457358	4,237518	9,145588	1,452863	-30,668452	-77,104196	0,000000	0,000000	1735502621,229087	0,000000
382283,000000	2762,684599	1704,962924	-1059,686765	4,572794	9,285286	1,667067	-30,556694	-76,871365	0,000000	0,000000	1735502621,231087	0,000000
382284,000000	2772,556618	1711,668447	-1062,741503	4,041940	9,005889	1,257285	-30,649826	-77,476725	0,000000	0,000000	1735502621,233087	0,000000
382285,000000	2773,208544	1714,164391	-1060,841605	4,051253	8,950010	0,968575	-30,733645	-77,597797	0,000000	0,000000	1735502621,235087	0,000000
382286,000000	2771,476284	1714,732498	-1058,829948	4,190952	8,698553	0,800937	-30,901283	-75,362623	0,000000	0,000000	1735502621,237087	0,000000
382287,000000	2764,584497	1712,888479	-1053,577289	3,511086	8,381903	0,502914	-31,525269	-77,011064	0,000000	0,000000	1735502621,239087	0,000000
382288,000000	2750,800923	1707,626507	-1045,130193	3,259629	8,074567	0,279397	-31,273812	-76,526776	0,000000	0,000000	1735502621,241087	0,000000
382289,000000	2737,250179	1700,520515	-1038,657501	3,324822	8,121133	0,251457	-31,571835	-78,380108	0,000000	0,000000	1735502621,243087	0,000000
382290,000000	2731,289715	1695,491374	-1037,735492	3,408641	8,428469	0,409782	-31,385571	-76,498836	0,000000	0,000000	1735502621,245087	0,000000
382291,000000	2732,863650	1693,964005	-1040,762290	3,706664	8,558854	0,707805	-30,780211	-76,601282	0,000000	0,000000	1735502621,247087	0,000000
382292,000000	2743,061632	1696,450636	-1048,455015	4,330650	9,099022	1,247972	-30,575320	-75,930730	0,000000	0,000000	1735502621,249087	0,000000
382293,000000	2759,313211	1703,137532	-1058,122143	4,395843	9,359792	1,462176	-30,742958	-77,253208	0,000000	0,000000	1735502621,251087	0,000000
382294,000000	2772,230655	1710,597426	-1063,561067	4,330650	9,248033	1,238659	-30,640513	-78,352168	0,000000	0,000000	1735502621,253087	0,000000
382295,000000	2773,720771	1714,006066	-1061,717048	4,041940	8,968636	1,024455	-30,379742	-78,501180	0,000000	0,000000	1735502621,255087	0,000000
382296,000000	2772,537991	1714,574173	-1059,919596	3,939494	8,810312	0,996515	-30,789524	-78,435987	0,000000	0,000000	1735502621,257087	0,000000
382297,000000	2766,996622	1713,251695	-1055,737957	3,660098	8,596107	0,670552	-31,199306	-77,979639	0,000000	0,000000	1735502621,259087	0,000000
382298,000000	2754,032612	1708,464697	-1047,439873	3,091991	8,158386	0,195578	-31,758100	-76,685101	0,000000	0,000000	1735502621,261087	0,000000
382299,000000	2739,224583	1701,284200	-1039,942726	3,082678	8,093193	0,186265	-31,609088	-77,178702	0,000000	0,000000	1735502621,263087	0,000000
382300,000000	2731,261775	1695,472747	-1037,782058	3,417954	8,353963	0,400469	-31,031668	-76,228753	0,000000	0,000000	1735502621,264087	0,000000
382301,000000	2731,820568	1693,461090	-1040,240750	3,678724	8,437783	0,679865	-31,199306	-77,327713	0,000000	0,000000	1735502621,266087	0,000000
382302,000000	2739,531919	1694,997773	-1046,499237	4,097819	8,922070	1,108274	-30,687079	-77,923760	0,000000	0,000000	1735502621,268087	0,000000
382303,000000	2755,215392	1701,153815	-1055,980101	4,451722	9,182841	1,555309	-30,286610	-77,337027	0,000000	0,000000	1735502621,270087	0,000000
382304,000000	2770,209685	1708,827913	-1063,309610	4,302710	9,369105	1,452863	-30,733645	-77,653676	0,000000	0,000000	1735502621,272087	0,000000
382305,000000	2773,823217	1713,046804	-1062,694937	4,069880	8,987263	1,052395	-30,621886	-78,808516	0,000000	0,000000	1735502621,274087	0,000000
382306,000000	2772,901207	1714,546233	-1060,320064	4,079193	8,875504	0,894070	-30,687079	-77,094883	0,000000	0,000000	1735502621,276087	0,000000
382307,000000	2769,064158	1714,434475	-1056,604087	3,753230	8,800998	0,558794	-31,050295	-77,430159	0,000000	0,000000	1735502621,278087	0,000000
382308,000000	2758,158371	1710,802317	-1049,209386	3,390014	8,270144	0,437722	-31,497329	-77,933073	0,000000	0,000000	1735502621,280087	0,000000
382309,000000	2742,754295	1703,836024	-1040,743664	3,185123	8,083880	0,167638	-31,506643	-77,802688	0,000000	0,000000	1735502621,282087	0,000000
382310,000000	2731,941640	1697,270200	-1036,636531	3,380701	8,409843	0,167638	-31,394884	-76,359138	0,000000	0,000000	1735502621,284087	0,000000
382311,000000	2730,805427	1694,029197	-1038,750634	3,632158	8,475035	0,661239	-31,283125	-76,917931	0,000000	0,000000	1735502621,286087	0,000000
382312,000000	2736,384049	1694,336534	-1043,928787	3,967434	8,912757	1,182780	-30,798838	-78,231096	0,000000	0,000000	1735502621,288087	0,000000
382313,000000	2750,717103	1699,207351	-1053,512096	4,237518	9,285286	1,555309	-30,575320	-77,774748	0,000000	0,000000	1735502621,290087	0,000000
382314,000000	2766,652033	1706,648618	-1062,024385	2,421439	8,912757	1,462176	-30,584633	-77,718869	0,000000	0,000000	1735502621,292087	0,000000
382315,000000	2773,664892	1712,329686	-1063,216478	3,790483	8,605421	0,894070	-30,724332	-78,277662	0,000000	0,000000	1735502621,294087	0,000000
382316,000000	2773,404121	1714,294776	-1061,065122	3,734604	8,642673	0,745058	-30,109659	-76,228753	0,000000	0,000000	1735502621,296087	0,000000
382317,000000	2770,517021	1714,490354	-1057,833433	3,669411	8,651987	0,772998	-30,491501	-76,051801	0,000000	0,000000	1735502621,298087	0,000000
382318,000000	2761,445940	1711,882651	-1051,342115	3,203750	8,307397	0,353903	-31,394884	-76,759607	0,000000	0,000000	1735502621,300087	0,000000
382319,000000	2746,675164	1705,801114	-1042,680815	3,185123	8,186325	0,027940	-31,972304	-76,973811	0,000000	0,000000	1735502621,302087	0,000000
382320,000000	2734,037116	1698,844135	-1037,111506	3,222376	8,223578	0,242144	-31,385571	-76,191500	0,000000	0,000000	1735502621,304087	0,000000
382321,000000	2730,553970	1694,886014	-1037,642360	3,464520	8,419156	0,614673	-31,115487	-77,234581	0,000000	0,000000	1735502621,306087	0,000000
382322,000000	2734,018490	1694,923267	-1041,078940	3,874302	8,642673	0,987202	-30,687079	-78,575686	0,000000	0,000000	1735502621,307087	0,000000
382323,000000	2746,954560	1699,067652	-1049,740240	4,461035	9,266660	1,424924	-30,435622	-76,619908	0,000000	0,000000	1735502621,309087	0,000000
382324,000000	2763,662487	1706,415787	-1059,062779	4,479662	9,313226	1,545995	-30,221418	-77,858567	0,000000	0,000000	1735502621,311087	0,000000
382325,000000	2773,422748	1713,102683	-1062,210649	4,200265	9,099022	1,229346	-30,305237	-78,286976	0,000000	0,000000	1735502621,313087	0,000000
382326,000000	2773,907036	1715,561375	-1060,264185	3,753230	8,773059	1,033768	-30,584633	-77,215955	0,000000	0,000000	1735502621,315087	0,000000
382327,000000	2772,435546	1716,148108	-1058,224589	3,753230	8,558854	0,745058	-30,873343	-78,044832	0,000000	0,000000	1735502621,317087	0,000000
382328,000000	2765,506506	1714,117825	-1053,381711	3,594905	8,232892	0,493601	-31,320378	-76,554716	0,000000	0,000000	1735502621,319087	0,000000
382329,000000	2751,564607	1708,250493	-1045,223325	3,213063	8,111820	0,037253	-31,488016	-76,573342	0,000000	0,000000	1735502621,321087	0,000000
382330,000000	2737,538889	1700,893044	-1038,629562	3,268942	8,139759	0,251457	-31,571835	-76,787546	0,000000	0,000000	1735502621,323087	0,000000
382331,000000	2731,708810	1695,714891	-1038,061455	3,539026	8,400530	0,614673	-31,404197	-76,992437	0,000000	0,000000	1735502621,325087	0,000000
382332,000000	2733,785659	1694,299281	-1041,525975	3,632158	8,502975	0,884756	-30,910596	-76,582655	0,000000	0,000000	1735502621,327087	0,000000
382333,000000	2744,235098	1697,009429	-1049,432904	4,591420	9,452924	1,490116	-30,659139	-77,979639	0,000000	0,000000	1735502621,329087	0,000000
382334,000000	2760,682255	1703,854650	-1058,913767	4,852191	9,648502	1,667067	-30,659139	-76,843426	0,000000	0,000000	1735502621,331087	0,000000
382335,000000	2773,255110	1711,025834	-1064,455137	4,004687	9,015203	1,238659	-30,519441	-75,930730	0,000000	0,000000	1735502621,333087	0,000000
382336,000000	2774,940804	1714,220271	-1062,694937	4,051253	8,698553	0,996515	-30,770898	-77,271834	0,000000	0,000000	1735502621,335087	0,000000
